Time,Displacement,Force,Compressive displacement,voltage_1
0.0,0.0722,0.1315,0.0,0.0609
0.005,0.0722,0.1317,0.0,0.0609
0.01,0.0722,0.132,0.0,0.0609
0.015,0.0722,0.1323,0.0,0.0609
0.02,0.0722,0.1325,0.0,0.0609
0.025,0.0722,0.1327,0.0,0.0609
0.03,0.0722,0.1329,0.0,0.0609
0.035,0.0722,0.133,0.0,0.0609
0.04,0.0722,0.1331,0.0,0.0609
0.045,0.0722,0.1332,0.0001,0.0609
0.05,0.0723,0.1331,0.0002,0.061
0.055,0.0724,0.1328,0.0003,0.061
0.06,0.0726,0.1329,0.0005,0.061
0.065,0.073,0.1333,0.0008,0.061
0.07,0.0734,0.1338,0.0012,0.061
0.075,0.0737,0.1343,0.0016,0.061
0.08,0.0741,0.1348,0.002,0.0609
0.085,0.0747,0.1353,0.0025,0.061
0.09,0.0753,0.1357,0.0031,0.0609
0.095,0.076,0.1362,0.0038,0.0609
0.1,0.0767,0.1371,0.0045,0.0609
0.105,0.0776,0.1381,0.0054,0.0609
0.11,0.0786,0.1394,0.0064,0.0609
0.115,0.0797,0.1408,0.0075,0.0609
0.12,0.081,0.1424,0.0088,0.0609
0.125,0.0825,0.144,0.0103,0.0609
0.13,0.0841,0.1459,0.0119,0.0609
0.135,0.0857,0.1478,0.0135,0.0609
0.14,0.0871,0.1499,0.015,0.0609
0.145,0.0884,0.1519,0.0163,0.0609
0.15,0.0896,0.1539,0.0174,0.0609
0.155,0.0907,0.1557,0.0186,0.0609
0.16,0.0919,0.1575,0.0197,0.0609
0.165,0.093,0.1595,0.0209,0.0609
0.17,0.0942,0.1615,0.0221,0.0609
0.175,0.0955,0.1639,0.0233,0.0609
0.18,0.0968,0.1666,0.0246,0.0609
0.185,0.0982,0.1693,0.026,0.0609
0.19,0.0996,0.172,0.0274,0.0609
0.195,0.1009,0.1744,0.0287,0.0609
0.2,0.1021,0.1766,0.03,0.0609
0.205,0.1034,0.1787,0.0312,0.0609
0.21,0.1047,0.1808,0.0325,0.0609
0.215,0.106,0.1831,0.0338,0.0609
0.22,0.1074,0.1853,0.0352,0.0609
0.225,0.1088,0.1875,0.0367,0.0609
0.23,0.1104,0.1896,0.0382,0.0609
0.235,0.112,0.1916,0.0398,0.0609
0.24,0.1136,0.1938,0.0414,0.0609
0.245,0.1153,0.1959,0.0431,0.0609
0.25,0.117,0.198,0.0448,0.0609
0.255,0.1186,0.2001,0.0465,0.0609
0.26,0.1203,0.2024,0.0481,0.0609
0.265,0.1219,0.2047,0.0497,0.0609
0.27,0.1235,0.2071,0.0513,0.0609
0.275,0.1251,0.2094,0.0529,0.0609
0.28,0.1266,0.2117,0.0545,0.0609
0.285,0.1283,0.214,0.0561,0.0609
0.29,0.1299,0.2164,0.0577,0.0609
0.295,0.1316,0.2189,0.0595,0.0609
0.3,0.1334,0.2217,0.0612,0.0609
0.305,0.1351,0.2245,0.0629,0.0609
0.31,0.1367,0.2273,0.0645,0.0609
0.315,0.1382,0.2299,0.066,0.0609
0.32,0.1396,0.2323,0.0675,0.0609
0.325,0.1409,0.2344,0.0688,0.0609
0.33,0.1422,0.2365,0.07,0.0609
0.335,0.1434,0.2385,0.0713,0.0609
0.34,0.1447,0.2406,0.0726,0.0609
0.345,0.146,0.2427,0.0739,0.0609
0.35,0.1475,0.245,0.0753,0.0609
0.355,0.1489,0.2473,0.0768,0.0609
0.36,0.1505,0.2497,0.0783,0.0609
0.365,0.152,0.2521,0.0798,0.0609
0.37,0.1535,0.2543,0.0813,0.0609
0.375,0.155,0.2563,0.0828,0.0609
0.38,0.1565,0.2583,0.0843,0.0609
0.385,0.158,0.2603,0.0858,0.0609
0.39,0.1596,0.2625,0.0874,0.0609
0.395,0.1612,0.2646,0.089,0.0609
0.4,0.1628,0.2668,0.0907,0.0609
0.405,0.1646,0.2691,0.0924,0.0609
0.41,0.1663,0.2715,0.0941,0.0609
0.415,0.1681,0.2737,0.0959,0.0609
0.42,0.1698,0.276,0.0976,0.0609
0.425,0.1716,0.2784,0.0994,0.0609
0.43,0.1732,0.2809,0.1011,0.0609
0.435,0.1748,0.2834,0.1027,0.0609
0.44,0.1764,0.286,0.1042,0.0609
0.445,0.1779,0.2886,0.1058,0.0609
0.45,0.1795,0.2911,0.1073,0.0609
0.455,0.1811,0.2934,0.109,0.0609
0.46,0.1828,0.2958,0.1107,0.0609
0.465,0.1846,0.2985,0.1124,0.0609
0.47,0.1863,0.3015,0.1141,0.0609
0.475,0.1881,0.3046,0.1159,0.0609
0.48,0.1897,0.3074,0.1176,0.0609
0.485,0.1913,0.3099,0.1191,0.0609
0.49,0.1927,0.3121,0.1205,0.0609
0.495,0.194,0.3142,0.1218,0.0609
0.5,0.1953,0.3162,0.1231,0.0609
0.505,0.1966,0.3185,0.1244,0.0609
0.51,0.1978,0.3208,0.1257,0.0609
0.515,0.1992,0.3231,0.127,0.0609
0.52,0.2006,0.3253,0.1284,0.0609
0.525,0.202,0.3275,0.1298,0.0609
0.53,0.2035,0.3296,0.1313,0.0609
0.535,0.205,0.3317,0.1328,0.0609
0.54,0.2064,0.3337,0.1342,0.0609
0.545,0.2078,0.3359,0.1356,0.0609
0.55,0.2092,0.3382,0.1371,0.0609
0.555,0.2107,0.3406,0.1386,0.0609
0.56,0.2123,0.3429,0.1401,0.0609
0.565,0.2138,0.3453,0.1417,0.0609
0.57,0.2154,0.3477,0.1433,0.0609
0.575,0.2171,0.3503,0.1449,0.0609
0.58,0.2187,0.3529,0.1466,0.0609
0.585,0.2204,0.3557,0.1482,0.0609
0.59,0.222,0.3585,0.1498,0.0609
0.595,0.2235,0.3612,0.1513,0.0609
0.6,0.225,0.3639,0.1528,0.0609
0.605,0.2264,0.3666,0.1542,0.0609
0.61,0.2278,0.3691,0.1556,0.0609
0.615,0.2291,0.3714,0.157,0.0609
0.62,0.2305,0.3736,0.1584,0.0609
0.625,0.232,0.3757,0.1599,0.0609
0.63,0.2336,0.3781,0.1614,0.0609
0.635,0.2352,0.3809,0.163,0.0609
0.64,0.2369,0.3838,0.1647,0.0609
0.645,0.2385,0.3866,0.1664,0.0609
0.65,0.2401,0.3891,0.168,0.0609
0.655,0.2417,0.3913,0.1695,0.0609
0.66,0.2431,0.3934,0.1709,0.0609
0.665,0.2444,0.3955,0.1723,0.0609
0.67,0.2457,0.3977,0.1735,0.0609
0.675,0.2469,0.4001,0.1747,0.0609
0.68,0.2481,0.4026,0.176,0.0609
0.685,0.2494,0.4048,0.1773,0.0609
0.69,0.2508,0.407,0.1787,0.0609
0.695,0.2522,0.4091,0.1801,0.0609
0.7,0.2537,0.4113,0.1816,0.0609
0.705,0.2553,0.4139,0.1831,0.0609
0.71,0.2568,0.4167,0.1847,0.0609
0.715,0.2584,0.4197,0.1862,0.0609
0.72,0.26,0.4226,0.1878,0.0609
0.725,0.2615,0.4252,0.1893,0.0609
0.73,0.263,0.4277,0.1908,0.0609
0.735,0.2645,0.4302,0.1924,0.0609
0.74,0.2661,0.4327,0.194,0.0609
0.745,0.2678,0.4355,0.1956,0.0609
0.75,0.2695,0.4387,0.1973,0.0609
0.755,0.2712,0.442,0.199,0.0609
0.76,0.2729,0.4453,0.2007,0.0609
0.765,0.2746,0.4485,0.2024,0.0609
0.77,0.2762,0.4517,0.2041,0.0609
0.775,0.2778,0.4547,0.2056,0.0609
0.78,0.2793,0.4579,0.2072,0.0609
0.785,0.2808,0.4611,0.2087,0.0609
0.79,0.2823,0.4645,0.2102,0.0609
0.795,0.2839,0.468,0.2117,0.0609
0.8,0.2855,0.4715,0.2134,0.0609
0.805,0.2872,0.4752,0.2151,0.0609
0.81,0.289,0.4792,0.2169,0.0609
0.815,0.2908,0.4833,0.2186,0.0609
0.82,0.2925,0.4872,0.2204,0.0609
0.825,0.2941,0.4911,0.222,0.0609
0.83,0.2956,0.4948,0.2234,0.0609
0.835,0.2969,0.4985,0.2248,0.0609
0.84,0.2982,0.5022,0.226,0.0609
0.845,0.2995,0.5056,0.2273,0.0609
0.85,0.3007,0.5089,0.2285,0.0609
0.855,0.302,0.512,0.2298,0.0609
0.86,0.3033,0.5151,0.2311,0.0609
0.865,0.3047,0.5183,0.2326,0.0609
0.87,0.3062,0.5218,0.234,0.0609
0.875,0.3076,0.5253,0.2355,0.0609
0.88,0.3091,0.5289,0.2369,0.0609
0.885,0.3105,0.5323,0.2384,0.0609
0.89,0.3119,0.5356,0.2398,0.0609
0.895,0.3134,0.5387,0.2412,0.0609
0.9,0.3149,0.5416,0.2427,0.0609
0.905,0.3164,0.5448,0.2442,0.0609
0.91,0.318,0.5482,0.2458,0.0609
0.915,0.3196,0.5519,0.2475,0.0609
0.92,0.3213,0.5558,0.2492,0.0609
0.925,0.323,0.5597,0.2508,0.0609
0.93,0.3247,0.5635,0.2525,0.0609
0.935,0.3263,0.5674,0.2541,0.0609
0.94,0.3279,0.5714,0.2558,0.0609
0.945,0.3294,0.5753,0.2573,0.0609
0.95,0.3308,0.5792,0.2587,0.0609
0.955,0.3322,0.5831,0.2601,0.0609
0.96,0.3336,0.5871,0.2615,0.0609
0.965,0.3351,0.5909,0.2629,0.0609
0.97,0.3366,0.5945,0.2644,0.0609
0.975,0.3381,0.5982,0.2659,0.0609
0.98,0.3397,0.602,0.2675,0.0609
0.985,0.3412,0.606,0.2691,0.0609
0.99,0.3428,0.6101,0.2706,0.0609
0.995,0.3443,0.6141,0.2722,0.0609
1.0,0.3458,0.6179,0.2736,0.0609
1.005,0.3471,0.6215,0.2749,0.0609
1.01,0.3483,0.6251,0.2761,0.0609
1.015,0.3495,0.6284,0.2774,0.0609
1.02,0.3507,0.6318,0.2785,0.0609
1.025,0.3519,0.6352,0.2797,0.0609
1.03,0.3531,0.6391,0.281,0.0609
1.035,0.3544,0.6436,0.2823,0.0609
1.04,0.3558,0.6487,0.2836,0.0609
1.045,0.3572,0.6543,0.2851,0.0609
1.05,0.3587,0.6602,0.2865,0.0609
1.055,0.3602,0.6664,0.288,0.0609
1.06,0.3617,0.6728,0.2895,0.0609
1.065,0.3631,0.6792,0.2909,0.0609
1.07,0.3645,0.6858,0.2924,0.0609
1.075,0.3661,0.6927,0.2939,0.0609
1.08,0.3677,0.6999,0.2955,0.0609
1.085,0.3693,0.7074,0.2971,0.0609
1.09,0.3709,0.715,0.2987,0.0609
1.095,0.3726,0.723,0.3005,0.0609
1.1,0.3744,0.7312,0.3022,0.0609
1.105,0.3761,0.7398,0.3039,0.0609
1.11,0.3778,0.7487,0.3056,0.0609
1.115,0.3794,0.7577,0.3072,0.0609
1.12,0.3808,0.7667,0.3087,0.0609
1.125,0.3823,0.7754,0.3101,0.0609
1.13,0.3838,0.784,0.3116,0.0609
1.135,0.3852,0.7923,0.3131,0.0609
1.14,0.3867,0.8006,0.3145,0.0609
1.145,0.3882,0.8088,0.3161,0.0609
1.15,0.3898,0.8173,0.3177,0.0609
1.155,0.3915,0.826,0.3193,0.0609
1.16,0.3932,0.8349,0.3211,0.0609
1.165,0.395,0.8439,0.3228,0.0609
1.17,0.3967,0.853,0.3245,0.0609
1.175,0.3983,0.8621,0.3261,0.0609
1.18,0.3998,0.8713,0.3277,0.0609
1.185,0.4012,0.8803,0.329,0.0609
1.19,0.4025,0.889,0.3303,0.0609
1.195,0.4037,0.8976,0.3315,0.0609
1.2,0.405,0.906,0.3328,0.0609
1.205,0.4063,0.9145,0.3341,0.0609
1.21,0.4076,0.9229,0.3354,0.0609
1.215,0.409,0.9312,0.3368,0.0609
1.22,0.4104,0.9392,0.3382,0.0609
1.225,0.4119,0.947,0.3397,0.0609
1.23,0.4133,0.9548,0.3411,0.0609
1.235,0.4147,0.9629,0.3426,0.0609
1.24,0.4161,0.9715,0.344,0.0609
1.245,0.4176,0.9806,0.3454,0.0609
1.25,0.4191,0.99,0.3469,0.0609
1.255,0.4206,0.9999,0.3485,0.0609
1.26,0.4223,1.0103,0.3501,0.0609
1.265,0.4239,1.0211,0.3518,0.0609
1.27,0.4256,1.0325,0.3535,0.0609
1.275,0.4274,1.0449,0.3552,0.0609
1.28,0.4291,1.058,0.3569,0.0609
1.285,0.4308,1.0716,0.3586,0.0609
1.29,0.4324,1.0853,0.3602,0.0609
1.295,0.4339,1.099,0.3618,0.0609
1.3,0.4355,1.1124,0.3633,0.0609
1.305,0.437,1.1258,0.3648,0.0609
1.31,0.4384,1.139,0.3663,0.0609
1.315,0.4399,1.1523,0.3677,0.0609
1.32,0.4414,1.1657,0.3693,0.0609
1.325,0.443,1.1789,0.3708,0.0609
1.33,0.4446,1.1919,0.3725,0.0609
1.335,0.4463,1.2048,0.3741,0.0609
1.34,0.4479,1.2176,0.3758,0.0609
1.345,0.4495,1.2305,0.3773,0.0609
1.35,0.451,1.2434,0.3788,0.0609
1.355,0.4524,1.2563,0.3802,0.0609
1.36,0.4536,1.269,0.3815,0.0609
1.365,0.4549,1.2814,0.3827,0.0609
1.37,0.4561,1.2934,0.3839,0.0609
1.375,0.4573,1.3049,0.3852,0.0609
1.38,0.4586,1.3164,0.3864,0.0609
1.385,0.4599,1.3278,0.3878,0.0609
1.39,0.4613,1.3393,0.3892,0.0609
1.395,0.4628,1.3508,0.3906,0.0609
1.4,0.4642,1.3622,0.392,0.0724
1.405,0.4656,1.3737,0.3934,0.2519
1.41,0.467,1.3854,0.3948,0.6109
1.415,0.4684,1.3973,0.3962,1.0534
1.42,0.4698,1.4094,0.3976,1.5145
1.425,0.4713,1.4218,0.3991,1.9512
1.43,0.4728,1.4346,0.4006,2.3375
1.435,0.4743,1.4477,0.4022,2.6611
1.44,0.4759,1.4614,0.4038,2.9189
1.445,0.4776,1.4757,0.4054,3.114
1.45,0.4793,1.4906,0.4071,3.2535
1.455,0.481,1.5062,0.4089,3.3464
1.46,0.4827,1.5224,0.4106,3.402
1.465,0.4844,1.5392,0.4123,3.4292
1.47,0.4861,1.5563,0.4139,3.4362
1.475,0.4876,1.5738,0.4155,3.4296
1.48,0.4892,1.5916,0.417,3.4148
1.485,0.4907,1.6096,0.4185,3.3959
1.49,0.4922,1.6279,0.4201,3.3759
1.495,0.4938,1.6464,0.4217,3.3567
1.5,0.4955,1.6649,0.4233,3.3397
1.505,0.4972,1.6837,0.425,3.3253
1.51,0.4988,1.7027,0.4267,3.3137
1.515,0.5005,1.722,0.4283,3.3049
1.52,0.5021,1.742,0.4299,3.2986
1.525,0.5035,1.7628,0.4313,3.2943
1.53,0.5048,1.7847,0.4327,3.2916
1.535,0.5061,1.8078,0.4339,3.2903
1.54,0.5073,1.8322,0.4351,3.2899
1.545,0.5085,1.8578,0.4363,3.2901
1.55,0.5097,1.8846,0.4375,3.2907
1.555,0.511,1.913,0.4388,3.2915
1.56,0.5124,1.943,0.4402,3.2924
1.565,0.5138,1.975,0.4416,3.2932
1.57,0.5153,2.0095,0.4431,3.294
1.575,0.5168,2.0475,0.4446,3.2947
1.58,0.5182,2.0894,0.4461,3.2952
1.585,0.5197,2.1356,0.4475,3.2956
1.59,0.5211,2.1863,0.449,3.2959
1.595,0.5227,2.2416,0.4505,3.2961
1.6,0.5242,2.3017,0.4521,3.2963
1.605,0.5258,2.3666,0.4536,3.2963
1.61,0.5274,2.4363,0.4553,3.2964
1.615,0.5291,2.5109,0.457,3.2964
1.62,0.5308,2.5904,0.4587,3.2964
1.625,0.5325,2.675,0.4604,3.2963
1.63,0.5342,2.7647,0.4621,3.2963
1.635,0.5358,2.8591,0.4637,3.2963
1.64,0.5373,2.9571,0.4652,3.2962
1.645,0.5388,3.0573,0.4666,3.2962
1.65,0.5401,3.1579,0.468,3.2962
1.655,0.5415,3.258,0.4693,3.2962
1.66,0.5428,3.357,0.4707,3.2962
1.665,0.5442,3.4553,0.4721,3.2962
1.67,0.5457,3.5536,0.4736,3.2962
1.675,0.5473,3.6533,0.4751,3.2962
1.68,0.5489,3.756,0.4767,3.2962
1.685,0.5505,3.8628,0.4783,3.2962
1.69,0.552,3.9741,0.4799,3.2961
1.695,0.5535,4.0896,0.4814,3.2961
1.7,0.5549,4.2077,0.4828,3.2961
1.705,0.5563,4.3272,0.4841,3.2961
1.71,0.5575,4.4459,0.4853,3.2961
1.715,0.5586,4.562,0.4865,3.2961
1.72,0.5598,4.6745,0.4877,3.2961
1.725,0.5611,4.7832,0.4889,3.2961
1.73,0.5624,4.8892,0.4902,3.2961
1.735,0.5638,4.9937,0.4916,3.2961
1.74,0.5652,5.0984,0.493,3.2961
1.745,0.5667,5.2053,0.4945,3.2961
1.75,0.5683,5.3163,0.4961,3.296
1.755,0.5699,5.4326,0.4977,3.296
1.76,0.5714,5.5547,0.4993,3.296
1.765,0.573,5.6824,0.5008,3.296
1.77,0.5746,5.8153,0.5024,3.296
1.775,0.5762,5.9531,0.5041,3.296
1.78,0.5779,6.0959,0.5058,3.296
1.785,0.5797,6.244,0.5075,3.296
1.79,0.5815,6.3978,0.5093,3.2961
1.795,0.5833,6.5571,0.5111,3.2961
1.8,0.5851,6.7218,0.5129,3.2961
1.805,0.5869,6.8918,0.5147,3.2961
1.81,0.5886,7.0661,0.5164,3.2961
1.815,0.5902,7.243,0.5181,3.2962
1.82,0.5918,7.4203,0.5196,3.2962
1.825,0.5933,7.596,0.5212,3.2962
1.83,0.5949,7.7687,0.5227,3.2962
1.835,0.5964,7.9379,0.5242,3.2962
1.84,0.598,8.1038,0.5258,3.2961
1.845,0.5997,8.268,0.5275,3.2961
1.85,0.6014,8.4324,0.5293,3.2961
1.855,0.6032,8.5988,0.531,3.2961
1.86,0.6049,8.7678,0.5327,3.2961
1.865,0.6065,8.9391,0.5343,3.2961
1.87,0.608,9.1114,0.5358,3.2961
1.875,0.6094,9.282,0.5372,3.296
1.88,0.6106,9.4483,0.5385,3.296
1.885,0.6119,9.6079,0.5397,3.296
1.89,0.6131,9.7597,0.541,3.2959
1.895,0.6144,9.9035,0.5422,3.2959
1.9,0.6158,10.0408,0.5436,3.2959
1.905,0.6172,10.1743,0.545,3.2959
1.91,0.6187,10.3067,0.5465,3.2959
1.915,0.6201,10.4403,0.5479,3.2959
1.92,0.6215,10.5759,0.5494,3.2959
1.925,0.6229,10.7137,0.5508,3.2959
1.93,0.6243,10.8536,0.5521,3.2959
1.935,0.6257,10.9949,0.5535,3.2959
1.94,0.6271,11.1376,0.5549,3.2959
1.945,0.6286,11.2824,0.5564,3.296
1.95,0.6301,11.4305,0.5579,3.296
1.955,0.6317,11.583,0.5595,3.296
1.96,0.6333,11.741,0.5611,3.296
1.965,0.6349,11.9051,0.5628,3.2961
1.97,0.6366,12.0752,0.5644,3.2961
1.975,0.6382,12.2511,0.566,3.2961
1.98,0.6397,12.4317,0.5676,3.2961
1.985,0.6412,12.6151,0.5691,3.2962
1.99,0.6427,12.7991,0.5705,3.2962
1.995,0.6441,12.9813,0.5719,3.2962
2.0,0.6455,13.1603,0.5733,3.2962
2.005,0.6469,13.3352,0.5747,3.2961
2.01,0.6483,13.5062,0.5762,3.2961
2.015,0.6498,13.6742,0.5777,3.2961
2.02,0.6514,13.841,0.5792,3.2961
2.025,0.653,14.0083,0.5808,3.2961
2.03,0.6546,14.1778,0.5824,3.2961
2.035,0.6562,14.3508,0.5841,3.2961
2.04,0.6578,14.5274,0.5856,3.2961
2.045,0.6592,14.7067,0.5871,3.2961
2.05,0.6605,14.886,0.5884,3.2961
2.055,0.6618,15.0623,0.5896,3.2961
2.06,0.663,15.2327,0.5908,3.2961
2.065,0.6642,15.3955,0.592,3.2961
2.07,0.6654,15.5502,0.5932,3.296
2.075,0.6666,15.698,0.5944,3.296
2.08,0.6679,15.8412,0.5958,3.296
2.085,0.6693,15.9827,0.5972,3.296
2.09,0.6708,16.1256,0.5986,3.296
2.095,0.6723,16.2724,0.6001,3.296
2.1,0.6737,16.4247,0.6016,3.296
2.105,0.6752,16.5828,0.603,3.296
2.11,0.6766,16.7459,0.6044,3.296
2.115,0.6781,16.9135,0.6059,3.296
2.12,0.6796,17.0854,0.6075,3.296
2.125,0.6812,17.2618,0.609,3.296
2.13,0.6828,17.4424,0.6106,3.296
2.135,0.6844,17.6279,0.6122,3.296
2.14,0.6861,17.8186,0.6139,3.296
2.145,0.6878,18.0146,0.6156,3.296
2.15,0.6895,18.2164,0.6174,3.296
2.155,0.6913,18.4242,0.6191,3.296
2.16,0.693,18.6373,0.6208,3.296
2.165,0.6946,18.8537,0.6224,3.296
2.17,0.6961,19.071,0.624,3.2961
2.175,0.6977,19.287,0.6255,3.2961
2.18,0.6992,19.5,0.627,3.2961
2.185,0.7007,19.7086,0.6286,3.2961
2.19,0.7023,19.9134,0.6302,3.2961
2.195,0.704,20.1158,0.6318,3.2961
2.2,0.7056,20.3177,0.6335,3.2961
2.205,0.7073,20.5209,0.6352,3.2961
2.21,0.709,20.7263,0.6368,3.2961
2.215,0.7106,20.9337,0.6384,3.2961
2.22,0.712,21.1417,0.6399,3.2961
2.225,0.7134,21.3476,0.6412,3.2961
2.23,0.7146,21.5478,0.6424,3.2962
2.235,0.7158,21.7397,0.6436,3.2962
2.24,0.717,21.922,0.6449,3.2962
2.245,0.7183,22.0953,0.6461,3.2962
2.25,0.7196,22.2614,0.6474,3.2962
2.255,0.721,22.4228,0.6488,3.2962
2.26,0.7224,22.5825,0.6502,3.2962
2.265,0.7238,22.7434,0.6517,3.2961
2.27,0.7252,22.9069,0.6531,3.2961
2.275,0.7266,23.0738,0.6545,3.2961
2.28,0.7281,23.244,0.6559,3.2961
2.285,0.7295,23.4174,0.6573,3.2961
2.29,0.731,23.5944,0.6588,3.2961
2.295,0.7325,23.7757,0.6604,3.2961
2.3,0.7341,23.9617,0.6619,3.2961
2.305,0.7358,24.1536,0.6636,3.2961
2.31,0.7375,24.3524,0.6653,3.2961
2.315,0.7392,24.5592,0.667,3.2962
2.32,0.7409,24.7738,0.6688,3.2962
2.325,0.7427,24.996,0.6705,3.2962
2.33,0.7444,25.2247,0.6722,3.2962
2.335,0.746,25.4578,0.6738,3.2962
2.34,0.7475,25.6922,0.6753,3.2962
2.345,0.7489,25.9246,0.6768,3.2962
2.35,0.7504,26.1525,0.6782,3.2963
2.355,0.7518,26.3744,0.6797,3.2963
2.36,0.7533,26.5901,0.6811,3.2963
2.365,0.7548,26.8006,0.6826,3.2963
2.37,0.7564,27.0082,0.6842,3.2963
2.375,0.758,27.2156,0.6859,3.2963
2.38,0.7596,27.4247,0.6875,3.2963
2.385,0.7612,27.6362,0.689,3.2963
2.39,0.7626,27.8493,0.6905,3.2963
2.395,0.764,28.062,0.6918,3.2963
2.4,0.7653,28.2718,0.6931,3.2963
2.405,0.7665,28.4759,0.6944,3.2963
2.41,0.7677,28.6725,0.6956,3.2963
2.415,0.769,28.8608,0.6968,3.2963
2.42,0.7702,29.0414,0.6981,3.2963
2.425,0.7716,29.2162,0.6994,3.2963
2.43,0.773,29.3881,0.7008,3.2963
2.435,0.7745,29.5603,0.7023,3.2963
2.44,0.776,29.7358,0.7038,3.2963
2.445,0.7775,29.9167,0.7053,3.2963
2.45,0.779,30.1042,0.7068,3.2963
2.455,0.7805,30.2983,0.7083,3.2963
2.46,0.782,30.4984,0.7098,3.2962
2.465,0.7835,30.7037,0.7114,3.2962
2.47,0.7851,30.9142,0.713,3.2962
2.475,0.7868,31.1302,0.7146,3.2962
2.48,0.7884,31.3518,0.7162,3.2962
2.485,0.7901,31.579,0.718,3.2962
2.49,0.7918,31.8118,0.7196,3.2962
2.495,0.7935,32.0503,0.7213,3.2962
2.5,0.7951,32.2935,0.723,3.2962
2.505,0.7968,32.54,0.7246,3.2962
2.51,0.7983,32.7875,0.7261,3.2962
2.515,0.7997,33.0332,0.7276,3.2962
2.52,0.8012,33.2745,0.729,3.2962
2.525,0.8026,33.5097,0.7305,3.2962
2.53,0.8041,33.7385,0.7319,3.2962
2.535,0.8056,33.9617,0.7334,3.2961
2.54,0.8072,34.1817,0.735,3.2961
2.545,0.8089,34.4014,0.7367,3.2961
2.55,0.8105,34.6239,0.7384,3.2961
2.555,0.8122,34.8512,0.74,3.2961
2.56,0.8138,35.0835,0.7416,3.2962
2.565,0.8153,35.3193,0.7431,3.2962
2.57,0.8167,35.5556,0.7445,3.2962
2.575,0.818,35.7886,0.7458,3.2962
2.58,0.8192,36.0146,0.7471,3.2962
2.585,0.8204,36.2308,0.7483,3.2962
2.59,0.8217,36.4362,0.7495,3.2962
2.595,0.8229,36.6318,0.7508,3.2962
2.6,0.8243,36.8199,0.7521,3.2962
2.605,0.8257,37.0034,0.7535,3.2962
2.61,0.8271,37.1861,0.755,3.2962
2.615,0.8286,37.3708,0.7564,3.2962
2.62,0.83,37.5593,0.7578,3.2962
2.625,0.8314,37.7519,0.7592,3.2961
2.63,0.8328,37.9484,0.7606,3.2961
2.635,0.8342,38.1486,0.762,3.2961
2.64,0.8357,38.3524,0.7635,3.2961
2.645,0.8372,38.5603,0.765,3.296
2.65,0.8387,38.7732,0.7666,3.296
2.655,0.8404,38.9922,0.7682,3.296
2.66,0.842,39.2183,0.7699,3.296
2.665,0.8437,39.4524,0.7715,3.296
2.67,0.8454,39.6951,0.7732,3.296
2.675,0.8471,39.9459,0.7749,3.296
2.68,0.8487,40.2029,0.7765,3.296
2.685,0.8502,40.463,0.778,3.296
2.69,0.8517,40.723,0.7795,3.296
2.695,0.8531,40.9801,0.781,3.296
2.7,0.8545,41.2315,0.7824,3.296
2.705,0.856,41.4764,0.7839,3.296
2.71,0.8576,41.716,0.7854,3.2961
2.715,0.8592,41.9527,0.787,3.2961
2.72,0.8609,42.1895,0.7887,3.2961
2.725,0.8626,42.4297,0.7904,3.2961
2.73,0.8643,42.6757,0.7921,3.2961
2.735,0.8659,42.9277,0.7937,3.2961
2.74,0.8674,43.184,0.7953,3.2961
2.745,0.8688,43.4406,0.7966,3.2961
2.75,0.87,43.6923,0.7979,3.2961
2.755,0.8713,43.9344,0.7991,3.2961
2.76,0.8725,44.164,0.8003,3.2961
2.765,0.8737,44.3811,0.8016,3.2961
2.77,0.875,44.5869,0.8028,3.2961
2.775,0.8763,44.7842,0.8042,3.2961
2.78,0.8777,44.9765,0.8056,3.2962
2.785,0.8792,45.1679,0.807,3.2962
2.79,0.8807,45.3626,0.8085,3.2961
2.795,0.8822,45.5636,0.81,3.2961
2.8,0.8837,45.7719,0.8115,3.2961
2.805,0.8852,45.9877,0.813,3.2961
2.81,0.8867,46.2105,0.8146,3.2961
2.815,0.8883,46.4401,0.8161,3.2961
2.82,0.8899,46.6768,0.8178,3.2961
2.825,0.8916,46.9216,0.8194,3.2961
2.83,0.8933,47.1746,0.8211,3.2961
2.835,0.895,47.4362,0.8229,3.2961
2.84,0.8968,47.7066,0.8247,3.2961
2.845,0.8986,47.9864,0.8265,3.296
2.85,0.9004,48.2747,0.8282,3.296
2.855,0.902,48.5689,0.8299,3.296
2.86,0.9036,48.8657,0.8314,3.296
2.865,0.9051,49.1609,0.833,3.2961
2.87,0.9066,49.4508,0.8345,3.2961
2.875,0.9082,49.7334,0.836,3.2961
2.88,0.9098,50.0091,0.8376,3.2961
2.881,0.9101,50.0636,0.8379,3.2961
2.886,0.9117,50.3333,0.8395,3.2961
2.891,0.9131,50.5996,0.8409,3.2961
2.896,0.9138,50.8579,0.8416,3.2961
2.901,0.9139,51.0928,0.8417,3.2961
2.906,0.9138,51.2861,0.8416,3.2961
2.911,0.9137,51.4269,0.8415,3.2961
2.916,0.9136,51.5139,0.8414,3.2961
2.921,0.9134,51.5516,0.8413,3.2961
2.926,0.9133,51.547,0.8411,3.2961
2.931,0.9131,51.5086,0.8409,3.296
2.936,0.9128,51.4434,0.8406,3.296
2.941,0.9125,51.3571,0.8403,3.296
2.946,0.9122,51.2556,0.84,3.296
2.951,0.9119,51.1434,0.8397,3.296
2.956,0.9116,51.0241,0.8395,3.296
2.961,0.9112,50.9012,0.8391,3.296
2.966,0.9106,50.7747,0.8384,3.296
2.971,0.9098,50.6397,0.8376,3.2959
2.976,0.909,50.4915,0.8368,3.2959
2.981,0.908,50.3269,0.8359,3.2959
