Time,Displacement,Force,Compressive displacement,voltage_1
0.0,0.0,0.404,0.0,0.0608
0.005,0.0,0.4039,0.0,0.0607
0.01,0.0,0.4037,0.0,0.0607
0.015,0.0,0.4034,0.0,0.0608
0.02,0.0,0.4031,0.0,0.0608
0.025,0.0,0.4028,0.0,0.0607
0.03,0.0,0.4028,0.0,0.0608
0.035,0.0,0.4031,0.0,0.0608
0.04,0.0,0.4035,0.0,0.0607
0.045,0.0001,0.4037,0.0001,0.0608
0.05,0.0002,0.4039,0.0002,0.0608
0.055,0.0003,0.404,0.0003,0.0608
0.06,0.0007,0.4041,0.0006,0.0607
0.065,0.0011,0.4047,0.0011,0.0608
0.07,0.0018,0.4058,0.0018,0.0608
0.075,0.0027,0.4078,0.0027,0.0607
0.08,0.0039,0.4107,0.0039,0.0608
0.085,0.0053,0.4145,0.0053,0.0608
0.09,0.007,0.4192,0.007,0.0607
0.095,0.0088,0.4248,0.0088,0.0608
0.1,0.0105,0.4314,0.0105,0.0608
0.105,0.0122,0.4388,0.0122,0.0608
0.11,0.0137,0.4471,0.0137,0.0607
0.115,0.0151,0.4557,0.0151,0.0608
0.12,0.0163,0.4644,0.0163,0.0608
0.125,0.0175,0.4728,0.0175,0.0607
0.13,0.0186,0.481,0.0186,0.0608
0.135,0.0198,0.4889,0.0198,0.0608
0.14,0.021,0.4967,0.0209,0.0607
0.145,0.0223,0.5045,0.0222,0.0608
0.15,0.0236,0.5122,0.0236,0.0608
0.155,0.0251,0.5198,0.0251,0.0608
0.16,0.0265,0.5271,0.0265,0.0607
0.165,0.028,0.5342,0.028,0.0608
0.17,0.0294,0.5411,0.0294,0.0608
0.175,0.0309,0.548,0.0309,0.0607
0.18,0.0323,0.5551,0.0323,0.0608
0.185,0.0338,0.5624,0.0338,0.0608
0.19,0.0353,0.5698,0.0352,0.0607
0.195,0.0368,0.5773,0.0368,0.0608
0.2,0.0384,0.5848,0.0384,0.0608
0.205,0.04,0.5924,0.04,0.0608
0.21,0.0417,0.6002,0.0417,0.0607
0.215,0.0434,0.6082,0.0434,0.0608
0.22,0.045,0.6163,0.045,0.0608
0.225,0.0467,0.6243,0.0467,0.0607
0.23,0.0482,0.6323,0.0482,0.0608
0.235,0.0497,0.6402,0.0497,0.0608
0.24,0.0512,0.648,0.0511,0.0607
0.245,0.0526,0.6557,0.0526,0.0608
0.25,0.054,0.6632,0.054,0.0608
0.255,0.0555,0.6706,0.0555,0.0608
0.26,0.0571,0.6778,0.0571,0.0608
0.265,0.0587,0.6848,0.0587,0.0608
0.27,0.0603,0.6918,0.0603,0.0608
0.275,0.0619,0.6988,0.0619,0.0607
0.28,0.0635,0.7057,0.0635,0.0608
0.285,0.0651,0.7126,0.0651,0.0608
0.29,0.0665,0.7192,0.0665,0.0607
0.295,0.0678,0.7254,0.0678,0.0608
0.3,0.069,0.7313,0.069,0.0608
0.305,0.0702,0.737,0.0702,0.0608
0.31,0.0714,0.7426,0.0714,0.0607
0.315,0.0726,0.7481,0.0726,0.0608
0.32,0.0739,0.7535,0.0739,0.0608
0.325,0.0753,0.7587,0.0753,0.0607
0.33,0.0768,0.7641,0.0768,0.0608
0.335,0.0783,0.7696,0.0783,0.0608
0.34,0.0799,0.7755,0.0799,0.0607
0.345,0.0814,0.7817,0.0814,0.0608
0.35,0.0829,0.7883,0.0829,0.0608
0.355,0.0844,0.795,0.0843,0.0608
0.36,0.0859,0.802,0.0858,0.0607
0.365,0.0874,0.8093,0.0874,0.0608
0.37,0.089,0.8166,0.089,0.0608
0.375,0.0907,0.8241,0.0907,0.0607
0.38,0.0924,0.8318,0.0923,0.0608
0.385,0.0941,0.8397,0.094,0.0608
0.39,0.0958,0.8477,0.0957,0.0607
0.395,0.0975,0.8557,0.0975,0.0608
0.4,0.0991,0.8636,0.0991,0.0608
0.405,0.1008,0.8716,0.1008,0.0608
0.41,0.1023,0.8796,0.1023,0.0608
0.415,0.1038,0.8874,0.1038,0.0608
0.42,0.1053,0.895,0.1053,0.0608
0.425,0.1069,0.9026,0.1068,0.0608
0.43,0.1085,0.9101,0.1085,0.0608
0.435,0.1101,0.9177,0.1101,0.0608
0.44,0.1119,0.9256,0.1119,0.0608
0.445,0.1136,0.9337,0.1136,0.0608
0.45,0.1153,0.942,0.1153,0.0609
0.455,0.1169,0.9503,0.1169,0.0608
0.46,0.1185,0.9584,0.1185,0.0608
0.465,0.1198,0.9662,0.1198,0.0608
0.47,0.1211,0.9737,0.1211,0.0608
0.475,0.1223,0.9809,0.1223,0.0607
0.48,0.1235,0.9876,0.1235,0.0608
0.485,0.1247,0.9941,0.1247,0.0608
0.49,0.126,1.0003,0.126,0.0607
0.495,0.1274,1.0062,0.1274,0.0608
0.5,0.1289,1.012,0.1288,0.0608
0.505,0.1303,1.0177,0.1303,0.0608
0.51,0.1318,1.0236,0.1318,0.0608
0.515,0.1333,1.0299,0.1333,0.0608
0.52,0.1348,1.0364,0.1348,0.0608
0.525,0.1363,1.0432,0.1362,0.0607
0.53,0.1378,1.0503,0.1378,0.0608
0.535,0.1393,1.0577,0.1393,0.0608
0.54,0.1409,1.0654,0.1409,0.0608
0.545,0.1426,1.0731,0.1426,0.0608
0.55,0.1442,1.081,0.1442,0.0609
0.555,0.1459,1.089,0.1459,0.0608
0.56,0.1476,1.0973,0.1476,0.0608
0.565,0.1493,1.1057,0.1493,0.0609
0.57,0.1509,1.1143,0.1509,0.0608
0.575,0.1525,1.1228,0.1525,0.0608
0.58,0.154,1.1312,0.154,0.0608
0.585,0.1555,1.1394,0.1555,0.0609
0.59,0.1569,1.1474,0.1569,0.0608
0.595,0.1583,1.1552,0.1583,0.0608
0.6,0.1599,1.163,0.1598,0.0609
0.605,0.1614,1.1707,0.1614,0.0608
0.61,0.163,1.1785,0.163,0.0608
0.615,0.1646,1.1864,0.1646,0.0609
0.62,0.1663,1.1946,0.1662,0.0609
0.625,0.1678,1.2035,0.1678,0.0608
0.63,0.1694,1.2131,0.1694,0.0609
0.635,0.1708,1.2234,0.1708,0.0609
0.64,0.1721,1.2341,0.1721,0.0608
0.645,0.1733,1.245,0.1733,0.0608
0.65,0.1745,1.2557,0.1745,0.0609
0.655,0.1757,1.266,0.1757,0.0608
0.66,0.177,1.2761,0.177,0.0608
0.665,0.1783,1.2859,0.1782,0.0609
0.67,0.1796,1.2957,0.1796,0.0608
0.675,0.181,1.306,0.181,0.0608
0.68,0.1825,1.3165,0.1824,0.0609
0.685,0.1839,1.3273,0.1839,0.0609
0.69,0.1853,1.3384,0.1853,0.0608
0.695,0.1868,1.3497,0.1868,0.0608
0.7,0.1882,1.3612,0.1882,0.0609
0.705,0.1898,1.3731,0.1898,0.0608
0.71,0.1914,1.3854,0.1913,0.0608
0.715,0.193,1.3983,0.193,0.0609
0.72,0.1948,1.4119,0.1947,0.0609
0.725,0.1965,1.4265,0.1965,0.0608
0.73,0.1983,1.442,0.1983,0.0609
0.735,0.2,1.4585,0.2,0.0609
0.74,0.2015,1.4759,0.2015,0.0608
0.745,0.203,1.4937,0.203,0.0608
0.75,0.2044,1.5117,0.2044,0.0609
0.755,0.2058,1.5296,0.2058,0.0608
0.76,0.2072,1.5471,0.2072,0.0608
0.765,0.2086,1.5644,0.2086,0.0609
0.77,0.21,1.5815,0.21,0.0609
0.775,0.2116,1.5985,0.2116,0.0608
0.78,0.2132,1.6156,0.2132,0.0609
0.785,0.215,1.633,0.215,0.0609
0.79,0.2169,1.6511,0.2169,0.0608
0.795,0.2189,1.6701,0.2189,0.0609
0.8,0.2209,1.6904,0.2209,0.0609
0.805,0.2229,1.7119,0.2229,0.0608
0.81,0.2247,1.7346,0.2247,0.0608
0.815,0.2264,1.7579,0.2264,0.0609
0.82,0.2279,1.7813,0.2279,0.0609
0.825,0.2294,1.8041,0.2294,0.0608
0.83,0.2309,1.8263,0.2309,0.0609
0.835,0.2323,1.8478,0.2323,0.0609
0.84,0.2338,1.8684,0.2338,0.0608
0.845,0.2352,1.8883,0.2352,0.0608
0.85,0.2366,1.9072,0.2365,0.0609
0.855,0.2379,1.9251,0.2379,0.0608
0.86,0.2392,1.9419,0.2391,0.0608
0.865,0.2404,1.9578,0.2404,0.0609
0.87,0.2417,1.9732,0.2417,0.0609
0.875,0.2431,1.988,0.243,0.0608
0.88,0.2444,2.0026,0.2444,0.0609
0.885,0.2458,2.0173,0.2458,0.0609
0.89,0.2472,2.0321,0.2472,0.0608
0.895,0.2487,2.0472,0.2487,0.0609
0.9,0.2501,2.0625,0.2501,0.0609
0.905,0.2516,2.0781,0.2516,0.0608
0.91,0.253,2.0943,0.253,0.0608
0.915,0.2545,2.1111,0.2545,0.0609
0.92,0.2559,2.1284,0.2559,0.0609
0.925,0.2573,2.1461,0.2573,0.0608
0.93,0.2587,2.1641,0.2586,0.0609
0.935,0.26,2.1821,0.26,0.0609
0.94,0.2614,2.2005,0.2614,0.0608
0.945,0.2629,2.2189,0.2629,0.0609
0.95,0.2644,2.2375,0.2644,0.0609
0.955,0.266,2.2564,0.266,0.0608
0.96,0.2677,2.276,0.2677,0.0608
0.965,0.2695,2.2965,0.2695,0.0609
0.97,0.2713,2.318,0.2712,0.0609
0.975,0.273,2.3405,0.273,0.0608
0.98,0.2746,2.3638,0.2746,0.0609
0.985,0.2761,2.3873,0.2761,0.0609
0.99,0.2774,2.411,0.2774,0.0608
0.995,0.2787,2.4344,0.2787,0.0608
1.0,0.28,2.4575,0.28,0.0609
1.005,0.2813,2.4806,0.2813,0.0608
1.01,0.2827,2.5036,0.2827,0.0608
1.015,0.2841,2.5267,0.2841,0.0609
1.02,0.2855,2.5502,0.2855,0.0609
1.025,0.287,2.5745,0.287,0.0608
1.03,0.2885,2.6,0.2884,0.0609
1.035,0.2899,2.6269,0.2899,0.0609
1.04,0.2913,2.6554,0.2913,0.0608
1.045,0.2927,2.6854,0.2927,0.0609
1.05,0.2943,2.7169,0.2942,0.0609
1.055,0.2958,2.7498,0.2957,0.0609
1.06,0.2973,2.784,0.2973,0.0608
1.065,0.2989,2.8199,0.2989,0.0609
1.07,0.3006,2.8576,0.3006,0.0609
1.075,0.3023,2.8977,0.3022,0.0608
1.08,0.304,2.9403,0.3039,0.0609
1.085,0.3056,2.9851,0.3056,0.0609
1.09,0.3073,3.0319,0.3073,0.0608
1.095,0.3089,3.0807,0.3088,0.0609
1.1,0.3104,3.131,0.3104,0.0609
1.105,0.3119,3.1828,0.3118,0.0608
1.11,0.3133,3.2356,0.3133,0.0608
1.115,0.3147,3.2893,0.3147,0.0609
1.12,0.3163,3.3439,0.3162,0.0609
1.125,0.3178,3.3997,0.3178,0.0608
1.13,0.3194,3.4572,0.3194,0.0609
1.135,0.3211,3.517,0.321,0.0609
1.14,0.3227,3.5798,0.3227,0.0608
1.145,0.3244,3.6462,0.3243,0.0609
1.15,0.3259,3.716,0.3259,0.0609
1.155,0.3273,3.7888,0.3273,0.0608
1.16,0.3286,3.8636,0.3286,0.0608
1.165,0.3299,3.939,0.3299,0.0609
1.17,0.3311,4.0142,0.3311,0.0609
1.175,0.3323,4.0885,0.3323,0.0608
1.18,0.3335,4.162,0.3335,0.0609
1.185,0.3348,4.2353,0.3348,0.0609
1.19,0.3362,4.3093,0.3362,0.0608
1.195,0.3376,4.385,0.3375,0.0609
1.2,0.339,4.4633,0.339,0.0609
1.205,0.3404,4.5449,0.3404,0.0609
1.21,0.3418,4.6303,0.3417,0.0608
1.215,0.3431,4.7192,0.3431,0.0609
1.22,0.3445,4.8108,0.3444,0.0609
1.225,0.3458,4.9049,0.3458,0.0608
1.23,0.3473,5.0016,0.3473,0.0609
1.235,0.3488,5.1013,0.3487,0.0609
1.24,0.3503,5.2046,0.3503,0.0608
1.245,0.3518,5.3117,0.3518,0.0609
1.25,0.3534,5.4231,0.3534,0.0609
1.255,0.355,5.5394,0.355,0.0608
1.26,0.3567,5.6613,0.3567,0.0608
1.265,0.3584,5.7891,0.3584,0.0609
1.27,0.3601,5.9227,0.3601,0.0609
1.275,0.3617,6.0616,0.3617,0.0608
1.28,0.3633,6.2046,0.3633,0.0609
1.285,0.3648,6.3499,0.3648,0.0609
1.29,0.3664,6.4963,0.3664,0.0608
1.295,0.368,6.6434,0.3679,0.0608
1.3,0.3696,6.7916,0.3696,0.0609
1.305,0.3713,6.9417,0.3713,0.0608
1.31,0.3731,7.0946,0.3731,0.0608
1.315,0.3749,7.2514,0.3748,0.0609
1.32,0.3766,7.4127,0.3766,0.0608
1.325,0.3782,7.5776,0.3781,0.0608
1.33,0.3796,7.7445,0.3796,0.0609
1.335,0.381,7.9109,0.381,0.0609
1.34,0.3823,8.0744,0.3823,0.0608
1.345,0.3836,8.2334,0.3835,0.0608
1.35,0.3848,8.3869,0.3848,0.0609
1.355,0.3861,8.5349,0.3861,0.0608
1.36,0.3875,8.6786,0.3875,0.0608
1.365,0.3889,8.8199,0.3889,0.0609
1.37,0.3904,8.9614,0.3904,0.0609
1.375,0.3919,9.105,0.3919,0.0608
1.38,0.3933,9.2515,0.3933,0.0609
1.385,0.3947,9.401,0.3947,0.0609
1.39,0.3961,9.5531,0.3961,0.0608
1.395,0.3976,9.7075,0.3976,0.0608
1.4,0.3991,9.8643,0.3991,0.0609
1.405,0.4007,10.0241,0.4006,0.0608
1.41,0.4023,10.1882,0.4022,0.0608
1.415,0.4039,10.3576,0.4039,0.0609
1.42,0.4055,10.5324,0.4055,0.0609
1.425,0.4072,10.7128,0.4072,0.0608
1.43,0.4089,10.8987,0.4089,0.0609
1.435,0.4105,11.0895,0.4105,0.0609
1.44,0.412,11.2837,0.412,0.0608
1.445,0.4135,11.479,0.4135,0.0608
1.45,0.4149,11.6729,0.4149,0.0609
1.455,0.4163,11.8636,0.4162,0.0608
1.46,0.4177,12.0501,0.4176,0.0608
1.465,0.4191,12.2327,0.4191,0.0609
1.47,0.4206,12.4127,0.4206,0.0608
1.475,0.4222,12.5924,0.4222,0.0608
1.48,0.4239,12.7742,0.4239,0.0609
1.485,0.4256,12.9605,0.4256,0.0609
1.49,0.4273,13.1533,0.4273,0.0608
1.495,0.429,13.353,0.429,0.0608
1.5,0.4305,13.5578,0.4305,0.0609
1.505,0.4319,13.7651,0.4319,0.0608
1.51,0.4332,13.9708,0.4332,0.0608
1.515,0.4344,14.1712,0.4344,0.0609
1.52,0.4356,14.3635,0.4356,0.0609
1.525,0.4368,14.5468,0.4368,0.0608
1.53,0.4381,14.7214,0.4381,0.0609
1.535,0.4394,14.8892,0.4394,0.0609
1.54,0.4408,15.0528,0.4407,0.0608
1.545,0.4422,15.215,0.4422,0.0608
1.55,0.4437,15.3785,0.4436,0.0609
1.555,0.4451,15.5449,0.4451,0.0608
1.56,0.4466,15.7151,0.4466,0.0608
1.565,0.448,15.8895,0.448,0.0609
1.57,0.4495,16.0676,0.4495,0.0609
1.575,0.451,16.2493,0.451,0.0608
1.58,0.4526,16.4347,0.4525,0.0609
1.585,0.4542,16.6248,0.4541,0.0609
1.59,0.4558,16.8199,0.4558,0.0608
1.595,0.4574,17.02,0.4574,0.0608
1.6,0.459,17.2249,0.459,0.0609
1.605,0.4606,17.4345,0.4606,0.0608
1.61,0.4623,17.649,0.4623,0.0608
1.615,0.4639,17.868,0.4639,0.0609
1.62,0.4655,18.0901,0.4654,0.0608
1.625,0.467,18.3133,0.467,0.0608
1.63,0.4685,18.5355,0.4685,0.0609
1.635,0.47,18.7553,0.47,0.0609
1.64,0.4715,18.9724,0.4715,0.0608
1.645,0.4731,19.1875,0.4731,0.0608
1.65,0.4747,19.4023,0.4747,0.0609
1.655,0.4765,19.6189,0.4765,0.0608
1.66,0.4783,19.8398,0.4783,0.0608
1.665,0.4801,20.0667,0.48,0.0609
1.67,0.4818,20.2996,0.4817,0.0609
1.675,0.4833,20.5365,0.4833,0.0608
1.68,0.4847,20.7733,0.4847,0.0609
1.685,0.486,21.0055,0.486,0.0609
1.69,0.4872,21.2294,0.4872,0.0608
1.695,0.4885,21.4423,0.4885,0.0609
1.7,0.4898,21.6438,0.4898,0.0609
1.705,0.4912,21.8358,0.4912,0.0608
1.71,0.4926,22.0214,0.4926,0.0608
1.715,0.4941,22.2041,0.4941,0.0609
1.72,0.4956,22.387,0.4956,0.0609
1.725,0.4971,22.5724,0.4971,0.0608
1.73,0.4986,22.7614,0.4986,0.0609
1.735,0.5001,22.9541,0.5001,0.0609
1.74,0.5016,23.1503,0.5016,0.0608
1.745,0.5031,23.3503,0.5031,0.0608
1.75,0.5047,23.5545,0.5047,0.0609
1.755,0.5063,23.7635,0.5063,0.0608
1.76,0.508,23.9783,0.508,0.0608
1.765,0.5097,24.1996,0.5097,0.0609
1.77,0.5114,24.4279,0.5114,0.0608
1.775,0.5131,24.6628,0.5131,0.0608
1.78,0.5148,24.9035,0.5148,0.0609
1.785,0.5164,25.1485,0.5164,0.0609
1.79,0.518,25.3951,0.5179,0.0608
1.795,0.5195,25.6402,0.5194,0.0608
1.8,0.5209,25.8814,0.5209,0.0609
1.805,0.5224,26.1172,0.5224,0.0608
1.81,0.5239,26.347,0.5239,0.0608
1.815,0.5254,26.5719,0.5254,0.0609
1.82,0.527,26.7937,0.527,0.0608
1.825,0.5286,27.0141,0.5286,0.0608
1.83,0.5302,27.2345,0.5302,0.0609
1.835,0.5318,27.4559,0.5317,0.0609
1.84,0.5332,27.6779,0.5332,0.0608
1.845,0.5346,27.8988,0.5346,0.0608
1.85,0.5358,28.1159,0.5358,0.0609
1.855,0.537,28.3256,0.537,0.0608
1.86,0.5381,28.5255,0.5381,0.0608
1.865,0.5392,28.7139,0.5392,0.0609
1.87,0.5403,28.8906,0.5403,0.0608
1.875,0.5414,29.0566,0.5414,0.0608
1.88,0.5426,29.2144,0.5425,0.0609
1.885,0.5438,29.3676,0.5438,0.0609
1.89,0.5451,29.5202,0.5451,0.0608
1.895,0.5465,29.6756,0.5464,0.0608
1.9,0.5479,29.8372,0.5478,0.0609
1.905,0.5493,30.0073,0.5492,0.0608
1.91,0.5507,30.1869,0.5506,0.0608
1.915,0.5521,30.3755,0.552,0.0609
1.92,0.5535,30.5724,0.5535,0.0608
1.925,0.555,30.7768,0.5549,0.0608
1.93,0.5565,30.9887,0.5565,0.0609
1.935,0.5582,31.2092,0.5581,0.0609
1.94,0.5599,31.4395,0.5598,0.0608
1.945,0.5616,31.6804,0.5616,0.0608
1.95,0.5634,31.9328,0.5634,0.0609
1.955,0.5652,32.1966,0.5652,0.0608
1.96,0.567,32.4709,0.567,0.0608
1.965,0.5688,32.7537,0.5687,0.0609
1.97,0.5704,33.0408,0.5704,0.0608
1.975,0.572,33.3282,0.572,0.0608
1.98,0.5735,33.6123,0.5735,0.0608
1.985,0.5751,33.8907,0.5751,0.0609
1.99,0.5767,34.1633,0.5767,0.0608
1.995,0.5784,34.4315,0.5783,0.0608
2.0,0.58,34.6971,0.58,0.0609
2.005,0.5817,34.9616,0.5817,0.0608
2.01,0.5834,35.227,0.5834,0.0608
2.015,0.5851,35.4944,0.5851,0.0609
2.02,0.5866,35.7627,0.5866,0.0608
2.025,0.588,36.0296,0.588,0.0608
2.03,0.5893,36.2915,0.5893,0.0609
2.035,0.5906,36.5446,0.5906,0.0609
2.04,0.5918,36.7866,0.5918,0.0608
2.045,0.5931,37.0169,0.593,0.0608
2.05,0.5943,37.2363,0.5943,0.0609
2.055,0.5957,37.4473,0.5957,0.0608
2.06,0.5971,37.6532,0.5971,0.0608
2.065,0.5986,37.8582,0.5985,0.0609
2.07,0.6001,38.0658,0.6,0.0758
2.075,0.6015,38.278,0.6015,0.2677
2.08,0.603,38.4958,0.603,0.6336
2.085,0.6045,38.7188,0.6044,1.0787
2.09,0.606,38.9467,0.6059,1.5394
2.095,0.6075,39.1797,0.6075,1.9738
2.1,0.6092,39.4187,0.6091,2.3571
2.105,0.6109,39.6651,0.6109,2.677
2.11,0.6126,39.9205,0.6126,2.9311
2.115,0.6144,40.1859,0.6144,3.1231
2.12,0.6162,40.4614,0.6162,3.2598
2.125,0.618,40.7464,0.6179,3.3503
2.13,0.6197,41.0388,0.6197,3.4041
2.135,0.6213,41.3356,0.6213,3.4301
2.14,0.6228,41.6326,0.6228,3.436
2.145,0.6243,41.9258,0.6243,3.4289
2.15,0.6258,42.2119,0.6257,3.4138
2.155,0.6272,42.4892,0.6272,3.3948
2.16,0.6286,42.7575,0.6286,3.3748
2.165,0.6301,43.0178,0.6301,3.3559
2.17,0.6317,43.2722,0.6316,3.3389
2.175,0.6332,43.5238,0.6332,3.3246
2.18,0.6348,43.775,0.6348,3.3132
2.185,0.6363,44.0274,0.6363,3.3046
2.19,0.6377,44.2807,0.6377,3.2983
2.195,0.6391,44.5332,0.639,3.2941
2.2,0.6403,44.7813,0.6402,3.2916
2.205,0.6414,45.0213,0.6414,3.2903
2.21,0.6425,45.2502,0.6425,3.2899
2.215,0.6436,45.4665,0.6435,3.2902
2.22,0.6447,45.6705,0.6447,3.2908
2.225,0.6459,45.8647,0.6459,3.2915
2.23,0.6472,46.053,0.6472,3.2925
2.235,0.6485,46.24,0.6485,3.2933
2.24,0.6499,46.4293,0.6499,3.294
2.245,0.6513,46.624,0.6513,3.2947
2.25,0.6527,46.8261,0.6527,3.2953
2.255,0.654,47.0361,0.654,3.2956
2.26,0.6554,47.253,0.6554,3.2959
2.265,0.6567,47.4749,0.6567,3.2962
2.27,0.6581,47.7004,0.6581,3.2962
2.275,0.6595,47.9287,0.6595,3.2962
2.28,0.6609,48.1597,0.6609,3.2964
2.285,0.6624,48.3944,0.6624,3.2964
2.29,0.664,48.6345,0.664,3.2963
2.295,0.6656,48.8815,0.6656,3.2963
2.3,0.6672,49.1366,0.6672,3.2963
2.305,0.6689,49.4002,0.6688,3.2962
2.31,0.6705,49.6726,0.6705,3.2961
2.315,0.6722,49.9539,0.6722,3.2961
2.316,0.6725,50.0112,0.6725,3.2961
2.317,0.6729,50.0689,0.6729,3.2961
2.322,0.6745,50.3617,0.6745,3.296
2.327,0.6758,50.6601,0.6758,3.296
2.332,0.6766,50.9555,0.6766,3.2961
2.337,0.6768,51.2304,0.6767,3.296
2.342,0.6767,51.4648,0.6767,3.2959
2.347,0.6767,51.6456,0.6766,3.296
2.352,0.6766,51.7697,0.6766,3.296
2.357,0.6765,51.8403,0.6765,3.2959
2.362,0.6764,51.8642,0.6764,3.2959
2.367,0.6763,51.8499,0.6763,3.296
2.372,0.6762,51.806,0.6762,3.2959
2.377,0.676,51.7408,0.676,3.2959
2.382,0.6759,51.6608,0.6759,3.296
2.387,0.6757,51.5706,0.6757,3.296
2.392,0.6754,51.4737,0.6754,3.2959
2.397,0.6751,51.3722,0.6751,3.296
2.402,0.6749,51.2675,0.6749,3.2959
2.407,0.6746,51.1609,0.6745,3.2958
2.412,0.674,51.0515,0.6739,3.2959
2.417,0.6732,50.9337,0.6732,3.2959
2.422,0.6723,50.8009,0.6723,3.2959
2.427,0.6713,50.6484,0.6713,3.2959
2.432,0.6702,50.4729,0.6702,3.296
2.437,0.669,50.2713,0.6689,3.296
2.442,0.6675,50.0407,0.6675,3.2959
2.447,0.6659,49.7778,0.6659,3.296
2.452,0.6642,49.48,0.6641,3.296
2.457,0.6625,49.148,0.6625,3.2959
2.462,0.661,48.7873,0.6609,3.296
2.467,0.6595,48.4058,0.6594,3.296
2.472,0.658,48.0115,0.658,3.2959
2.477,0.6566,47.6118,0.6565,3.2959
2.482,0.6552,47.2126,0.6552,3.296
2.487,0.6539,46.8191,0.6539,3.2959
2.492,0.6527,46.4364,0.6527,3.2959
2.497,0.6516,46.0687,0.6516,3.296
2.502,0.6505,45.7192,0.6505,3.2959
2.507,0.6495,45.389,0.6494,3.2959
2.512,0.6484,45.0774,0.6484,3.2959
2.517,0.6472,44.7823,0.6472,3.296
2.522,0.6461,44.5001,0.646,3.2959
2.527,0.6448,44.2261,0.6448,3.2958
2.532,0.6436,43.9558,0.6436,3.2959
2.537,0.6422,43.6851,0.6422,3.2958
2.542,0.6409,43.4104,0.6409,3.2958
2.547,0.6395,43.1294,0.6395,3.2958
2.552,0.6382,42.8419,0.6382,3.2958
2.557,0.637,42.5497,0.637,3.2957
2.562,0.6357,42.2556,0.6357,3.2957
2.567,0.6344,41.9613,0.6344,3.2958
2.572,0.6331,41.6679,0.6331,3.2957
2.577,0.6317,41.3751,0.6317,3.2958
2.582,0.6303,41.0815,0.6303,3.2959
2.587,0.6288,40.7853,0.6288,3.2958
2.592,0.6273,40.485,0.6273,3.2958
2.597,0.6257,40.179,0.6257,3.2959
2.602,0.6241,39.8668,0.6241,3.2959
2.607,0.6226,39.5483,0.6225,3.2959
2.612,0.621,39.224,0.6209,3.296
2.617,0.6194,38.8955,0.6194,3.2961
2.622,0.6178,38.5644,0.6178,3.296
2.627,0.6163,38.2325,0.6163,3.296
2.632,0.6148,37.9016,0.6148,3.2961
2.637,0.6133,37.5736,0.6133,3.2961
2.642,0.6117,37.2492,0.6117,3.296
2.647,0.6101,36.9279,0.6101,3.2961
2.652,0.6084,36.608,0.6084,3.2961
2.657,0.6067,36.2874,0.6067,3.296
2.662,0.6049,35.9635,0.6049,3.2961
2.667,0.6031,35.6343,0.6031,3.2961
2.672,0.6015,35.2998,0.6014,3.296
2.677,0.5999,34.9626,0.5999,3.296
2.682,0.5985,34.6268,0.5985,3.2961
2.687,0.5972,34.2972,0.5972,3.296
2.692,0.5959,33.9784,0.5959,3.296
2.697,0.5946,33.6726,0.5946,3.296
2.702,0.5933,33.3805,0.5933,3.296
2.707,0.5919,33.1002,0.5919,3.2959
2.712,0.5905,32.8291,0.5905,3.296
2.717,0.5891,32.5638,0.5891,3.296
2.722,0.5877,32.3016,0.5877,3.296
2.727,0.5863,32.0411,0.5863,3.296
2.732,0.5849,31.7815,0.5849,3.2961
2.737,0.5836,31.5226,0.5835,3.296
2.742,0.5821,31.2642,0.5821,3.2959
2.747,0.5807,31.0055,0.5807,3.296
2.752,0.5792,30.7453,0.5792,3.296
2.757,0.5776,30.4821,0.5776,3.2959
2.762,0.576,30.2143,0.576,3.296
2.767,0.5744,29.9399,0.5744,3.296
2.772,0.5727,29.658,0.5727,3.2959
2.777,0.571,29.3682,0.571,3.2959
2.782,0.5692,29.0702,0.5692,3.296
2.787,0.5675,28.7642,0.5675,3.296
2.792,0.5658,28.4519,0.5658,3.296
2.797,0.5643,28.1363,0.5642,3.2961
2.802,0.5627,27.8213,0.5627,3.2961
2.807,0.5611,27.5092,0.5611,3.296
2.812,0.5595,27.2013,0.5595,3.2961
2.817,0.5578,26.897,0.5578,3.2962
2.822,0.5561,26.5945,0.5561,3.2961
2.827,0.5543,26.2913,0.5542,3.2961
2.832,0.5524,25.9853,0.5524,3.2962
2.837,0.5506,25.6749,0.5506,3.2961
2.842,0.5488,25.3604,0.5488,3.296
2.847,0.5473,25.045,0.5473,3.2961
2.852,0.5458,24.7332,0.5458,3.2961
2.857,0.5444,24.4295,0.5444,3.296
2.862,0.543,24.1373,0.543,3.2961
2.867,0.5416,23.8577,0.5416,3.2961
2.872,0.5402,23.5898,0.5402,3.296
2.877,0.5388,23.3321,0.5388,3.296
2.882,0.5373,23.0825,0.5373,3.296
2.887,0.5359,22.8389,0.5359,3.2959
2.892,0.5345,22.6001,0.5345,3.2959
2.897,0.5331,22.3655,0.5331,3.2959
2.902,0.5317,22.1345,0.5317,3.2959
2.907,0.5303,21.9068,0.5303,3.2958
2.912,0.5289,21.6816,0.5289,3.2959
2.917,0.5275,21.458,0.5274,3.2959
2.922,0.5259,21.2347,0.5259,3.2959
2.927,0.5244,21.01,0.5244,3.2959
2.932,0.5228,20.782,0.5228,3.296
2.937,0.5211,20.5489,0.5211,3.2959
2.942,0.5194,20.3096,0.5194,3.2959
2.947,0.5177,20.0635,0.5177,3.296
2.952,0.516,19.8108,0.516,3.2959
2.957,0.5143,19.5525,0.5143,3.2959
