Time,Displacement,Force,Compressive displacement,voltage_1
0.0,0.0308,0.0991,0.0,0.0
0.005,0.0307,0.0985,0.0,0.0
0.01,0.0308,0.0981,0.0,0.0
0.015,0.0307,0.0981,0.0,0.0
0.02,0.0307,0.0981,0.0,0.0
0.025,0.0307,0.0981,0.0,0.0
0.03,0.0307,0.0982,0.0,0.0
0.035,0.0307,0.098,0.0,0.0
0.04,0.0308,0.098,0.0,0.0
0.045,0.0308,0.0982,0.0,0.0
0.05,0.0309,0.0985,0.0001,0.0
0.055,0.031,0.0989,0.0002,0.0
0.06,0.0312,0.0995,0.0004,0.0
0.065,0.0316,0.1001,0.0009,0.0
0.07,0.0322,0.1009,0.0015,0.0
0.075,0.033,0.1021,0.0023,0.0
0.08,0.034,0.1034,0.0033,0.0
0.085,0.0352,0.1054,0.0045,0.0
0.09,0.0366,0.108,0.0058,0.0
0.095,0.038,0.1109,0.0072,0.0
0.1,0.0394,0.1142,0.0087,0.0
0.105,0.041,0.1179,0.0102,0.0
0.11,0.0425,0.122,0.0118,0.0
0.115,0.0441,0.1266,0.0133,0.0
0.12,0.0457,0.1315,0.0149,0.0
0.125,0.0472,0.1366,0.0164,0.0
0.13,0.0486,0.142,0.0178,0.0
0.135,0.05,0.1475,0.0192,0.0
0.14,0.0514,0.153,0.0206,0.0
0.145,0.0528,0.1585,0.022,0.0
0.15,0.0542,0.1639,0.0234,0.0
0.155,0.0556,0.1693,0.0249,0.0
0.16,0.0572,0.1745,0.0264,0.0
0.165,0.0588,0.1798,0.028,0.0
0.17,0.0605,0.1849,0.0297,0.0
0.175,0.0622,0.19,0.0314,0.0
0.18,0.0639,0.1949,0.0332,0.0
0.185,0.0656,0.1998,0.0348,0.0
0.19,0.0673,0.2047,0.0365,0.0
0.195,0.0689,0.2097,0.0381,0.0
0.2,0.0704,0.2144,0.0396,0.0
0.205,0.0718,0.2192,0.0411,0.0
0.21,0.0733,0.224,0.0425,0.0
0.215,0.0748,0.2288,0.044,0.0
0.22,0.0763,0.2338,0.0456,0.0
0.225,0.0779,0.2387,0.0471,0.0
0.23,0.0795,0.2437,0.0487,0.0
0.235,0.0811,0.2489,0.0504,0.0
0.24,0.0827,0.2541,0.052,0.0
0.245,0.0843,0.2591,0.0536,0.0
0.25,0.0858,0.2638,0.0551,0.0
0.255,0.0872,0.2682,0.0565,0.0
0.26,0.0885,0.2724,0.0578,0.0
0.265,0.0898,0.2765,0.059,0.0
0.27,0.0909,0.2805,0.0601,0.0
0.275,0.092,0.2843,0.0613,0.0
0.28,0.0933,0.2881,0.0625,0.0
0.285,0.0946,0.292,0.0638,0.0
0.29,0.0959,0.2959,0.0651,0.0
0.295,0.0973,0.2997,0.0665,0.0
0.3,0.0987,0.3033,0.0679,0.0
0.305,0.1001,0.3068,0.0693,0.0
0.31,0.1015,0.3104,0.0707,0.0
0.315,0.1028,0.3141,0.0721,0.0
0.32,0.1042,0.3177,0.0734,0.0
0.325,0.1055,0.3214,0.0748,0.0
0.33,0.107,0.3251,0.0762,0.0
0.335,0.1084,0.3287,0.0777,0.0
0.34,0.11,0.3325,0.0792,0.0
0.345,0.1116,0.3367,0.0808,0.0
0.35,0.1133,0.341,0.0825,0.0
0.355,0.115,0.3455,0.0842,0.0
0.36,0.1167,0.3499,0.0859,0.0
0.365,0.1184,0.3541,0.0876,0.0
0.37,0.12,0.3584,0.0892,0.0
0.375,0.1215,0.3627,0.0907,0.0
0.38,0.123,0.3671,0.0922,0.0
0.385,0.1244,0.3717,0.0937,0.0
0.39,0.1258,0.3762,0.0951,0.0
0.395,0.1272,0.3805,0.0965,0.0
0.4,0.1287,0.3848,0.098,0.0
0.405,0.1303,0.389,0.0995,0.0
0.41,0.1319,0.3931,0.1011,0.0
0.415,0.1335,0.3973,0.1028,0.0
0.42,0.1351,0.4016,0.1044,0.0
0.425,0.1367,0.4056,0.1059,0.0
0.43,0.1381,0.4093,0.1074,0.0
0.435,0.1395,0.4128,0.1087,0.0
0.44,0.1408,0.4162,0.11,0.0
0.445,0.1419,0.4197,0.1112,0.0
0.45,0.1431,0.4233,0.1124,0.0
0.455,0.1444,0.4266,0.1136,0.0
0.46,0.1457,0.4298,0.1149,0.0
0.465,0.147,0.4328,0.1163,0.0
0.47,0.1484,0.4355,0.1177,0.0
0.475,0.1499,0.4386,0.1192,0.0
0.48,0.1515,0.4419,0.1207,0.0
0.485,0.153,0.4456,0.1222,0.0
0.49,0.1544,0.4496,0.1237,0.0
0.495,0.1559,0.4535,0.1252,0.0
0.5,0.1575,0.4572,0.1267,0.0
0.505,0.159,0.4608,0.1282,0.0
0.51,0.1606,0.4647,0.1298,0.0
0.515,0.1623,0.4688,0.1315,0.0
0.52,0.1639,0.4733,0.1332,0.0
0.525,0.1656,0.4778,0.1349,0.0
0.53,0.1674,0.4818,0.1366,0.0
0.535,0.1691,0.4857,0.1384,0.0
0.54,0.1709,0.4894,0.1401,0.0
0.545,0.1725,0.4931,0.1418,0.0
0.55,0.1741,0.4972,0.1434,0.0
0.555,0.1757,0.5015,0.1449,0.0
0.56,0.1772,0.5059,0.1464,0.0
0.565,0.1788,0.5102,0.148,0.0
0.57,0.1804,0.5143,0.1496,0.0
0.575,0.182,0.5185,0.1513,0.0
0.58,0.1838,0.523,0.153,0.0
0.585,0.1856,0.5275,0.1548,0.0
0.59,0.1874,0.5321,0.1566,0.0
0.595,0.1891,0.5367,0.1583,0.0
0.6,0.1907,0.541,0.1599,0.0
0.605,0.1921,0.5448,0.1613,0.0
0.61,0.1934,0.5483,0.1626,0.0
0.615,0.1946,0.5516,0.1638,0.0
0.62,0.1958,0.5549,0.165,0.0
0.625,0.197,0.5585,0.1662,0.0
0.63,0.1982,0.562,0.1674,0.0
0.635,0.1995,0.5652,0.1688,0.0
0.64,0.2009,0.5684,0.1701,0.0
0.645,0.2023,0.5714,0.1715,0.0
0.65,0.2037,0.5741,0.173,0.0
0.655,0.2051,0.5769,0.1744,0.0
0.66,0.2065,0.58,0.1758,0.0
0.665,0.2079,0.5833,0.1772,0.0
0.67,0.2093,0.5868,0.1786,0.0
0.675,0.2107,0.5904,0.18,0.0
0.68,0.2122,0.594,0.1815,0.0
0.685,0.2138,0.5976,0.183,0.0
0.69,0.2153,0.6012,0.1846,0.0
0.695,0.217,0.605,0.1862,0.0
0.7,0.2187,0.609,0.1879,-0.0001
0.705,0.2203,0.613,0.1896,0.0
0.71,0.222,0.617,0.1912,0.0
0.715,0.2236,0.6209,0.1929,0.0
0.72,0.2252,0.6247,0.1945,0.0
0.725,0.2267,0.6284,0.1959,0.0
0.73,0.2281,0.6323,0.1973,0.0
0.735,0.2295,0.6362,0.1988,0.0
0.74,0.231,0.6402,0.2002,0.0
0.745,0.2325,0.644,0.2017,0.0
0.75,0.2341,0.6477,0.2033,0.0
0.755,0.2358,0.6514,0.205,0.0
0.76,0.2374,0.6552,0.2067,0.0
0.765,0.2391,0.659,0.2083,0.0
0.77,0.2408,0.663,0.21,0.0
0.775,0.2423,0.667,0.2115,0.0
0.78,0.2437,0.6708,0.2129,0.0
0.785,0.245,0.6744,0.2142,0.0
0.79,0.2462,0.6778,0.2155,0.0
0.795,0.2474,0.681,0.2167,0.0
0.8,0.2486,0.6842,0.2179,0.0
0.805,0.2499,0.6873,0.2191,0.0
0.81,0.2512,0.6905,0.2204,0.0
0.815,0.2526,0.6935,0.2218,0.0
0.82,0.2541,0.6967,0.2233,0.0
0.825,0.2555,0.6998,0.2248,0.0
0.83,0.257,0.7028,0.2262,0.0
0.835,0.2585,0.7059,0.2277,0.0
0.84,0.2599,0.7091,0.2292,0.0
0.845,0.2614,0.7126,0.2306,0.0
0.85,0.263,0.7163,0.2322,0.0
0.855,0.2646,0.7202,0.2338,0.0
0.86,0.2663,0.7241,0.2355,0.0
0.865,0.268,0.7279,0.2372,-0.0001
0.87,0.2697,0.7318,0.239,-0.0001
0.875,0.2715,0.7357,0.2407,-0.0001
0.88,0.2732,0.7399,0.2425,-0.0001
0.885,0.275,0.7441,0.2442,-0.0001
0.89,0.2766,0.7483,0.2458,-0.0001
0.895,0.2781,0.7522,0.2473,0.0
0.9,0.2795,0.7561,0.2488,0.0
0.905,0.281,0.7599,0.2502,0.0
0.91,0.2824,0.7636,0.2517,0.0
0.915,0.2839,0.7673,0.2532,0.0
0.92,0.2855,0.7712,0.2547,0.0
0.925,0.2871,0.7751,0.2563,0.0
0.93,0.2887,0.7789,0.258,0.0
0.935,0.2904,0.7827,0.2596,0.0
0.94,0.292,0.7865,0.2612,0.0
0.945,0.2936,0.7904,0.2628,0.0012
0.95,0.2951,0.7943,0.2643,0.1114
0.955,0.2965,0.7981,0.2657,0.4262
0.96,0.2978,0.8016,0.267,0.8493
0.965,0.299,0.8049,0.2682,1.308
0.97,0.3002,0.8079,0.2694,1.7534
0.975,0.3014,0.8108,0.2707,2.1549
0.98,0.3028,0.8138,0.272,2.4966
0.985,0.3042,0.8169,0.2734,2.7729
0.99,0.3056,0.82,0.2749,2.9855
0.995,0.3071,0.8232,0.2764,3.1403
1.0,0.3086,0.8263,0.2778,3.2458
1.005,0.31,0.8292,0.2793,3.3114
1.01,0.3114,0.832,0.2807,3.3462
1.015,0.3129,0.8351,0.2821,3.3585
1.02,0.3143,0.8383,0.2836,3.3555
1.025,0.3158,0.8419,0.2851,3.3428
1.03,0.3174,0.8456,0.2866,3.3249
1.035,0.319,0.8491,0.2883,3.3051
1.04,0.3207,0.8527,0.2899,3.2856
1.045,0.3223,0.8565,0.2916,3.2679
1.05,0.324,0.8604,0.2933,3.2528
1.055,0.3257,0.8644,0.2949,3.2404
1.06,0.3274,0.8684,0.2966,3.2309
1.065,0.3289,0.8721,0.2982,3.2239
1.07,0.3305,0.8758,0.2997,3.219
1.075,0.3319,0.8794,0.3012,3.216
1.08,0.3333,0.8829,0.3026,3.2143
1.085,0.3348,0.8864,0.304,3.2136
1.09,0.3363,0.89,0.3055,3.2137
1.095,0.3378,0.8936,0.3071,3.2142
1.1,0.3395,0.8973,0.3087,3.2149
1.105,0.3412,0.9012,0.3105,3.2157
1.11,0.343,0.9051,0.3122,3.2166
1.115,0.3446,0.909,0.3139,3.2174
1.12,0.3463,0.9132,0.3155,3.218
1.125,0.3477,0.9173,0.317,3.2185
1.13,0.3491,0.9211,0.3184,3.219
1.135,0.3505,0.9246,0.3197,3.2193
1.14,0.3517,0.9278,0.321,3.2195
1.145,0.353,0.931,0.3223,3.2196
1.15,0.3544,0.9344,0.3236,3.2197
1.155,0.3558,0.9377,0.325,3.2197
1.16,0.3573,0.941,0.3265,3.2197
1.165,0.3588,0.9441,0.3281,3.2197
1.17,0.3603,0.9472,0.3296,3.2196
1.175,0.3618,0.9503,0.3311,3.2196
1.18,0.3633,0.9536,0.3325,3.2196
1.185,0.3648,0.957,0.334,3.2196
1.19,0.3663,0.9605,0.3355,3.2196
1.195,0.3678,0.9641,0.3371,3.2196
1.2,0.3694,0.9678,0.3387,3.2196
1.205,0.3711,0.9716,0.3403,3.2196
1.21,0.3728,0.9756,0.342,3.2196
1.215,0.3745,0.9797,0.3437,3.2196
1.22,0.3762,0.9839,0.3454,3.2196
1.225,0.3779,0.9883,0.3471,3.2196
1.23,0.3796,0.9927,0.3488,3.2195
1.235,0.3812,0.997,0.3504,3.2195
1.24,0.3827,1.0011,0.352,3.2195
1.245,0.3842,1.0049,0.3534,3.2195
1.25,0.3857,1.0085,0.3549,3.2195
1.255,0.3872,1.0121,0.3564,3.2195
1.26,0.3887,1.0156,0.3579,3.2195
1.265,0.3903,1.0192,0.3595,3.2195
1.27,0.3919,1.023,0.3611,3.2195
1.275,0.3935,1.0268,0.3628,3.2195
1.28,0.3952,1.0306,0.3644,3.2195
1.285,0.3968,1.0345,0.366,3.2196
1.29,0.3982,1.0382,0.3675,3.2196
1.295,0.3996,1.0417,0.3688,3.2196
1.3,0.4009,1.045,0.3701,3.2196
1.305,0.4021,1.0482,0.3713,3.2196
1.31,0.4032,1.0514,0.3725,3.2196
1.315,0.4044,1.0545,0.3736,3.2196
1.32,0.4055,1.0576,0.3748,3.2196
1.325,0.4068,1.0606,0.376,3.2195
1.33,0.4081,1.0636,0.3773,3.2195
1.335,0.4094,1.0664,0.3786,3.2195
1.34,0.4108,1.0692,0.38,3.2195
1.345,0.4121,1.072,0.3814,3.2195
1.35,0.4135,1.0748,0.3828,3.2194
1.355,0.4149,1.0777,0.3841,3.2194
1.36,0.4163,1.0807,0.3855,3.2194
1.365,0.4177,1.0836,0.3869,3.2194
1.37,0.4192,1.0867,0.3884,3.2194
1.375,0.4207,1.0902,0.3899,3.2194
1.38,0.4222,1.0939,0.3915,3.2194
1.385,0.4239,1.0977,0.3931,3.2194
1.39,0.4255,1.1017,0.3948,3.2194
1.395,0.4272,1.1055,0.3965,3.2194
1.4,0.4289,1.1093,0.3982,3.2195
1.405,0.4307,1.1132,0.3999,3.2195
1.41,0.4323,1.1171,0.4015,3.2195
1.415,0.4339,1.121,0.4031,3.2195
1.42,0.4354,1.1248,0.4046,3.2195
1.425,0.4369,1.1284,0.4061,3.2196
1.43,0.4383,1.1322,0.4076,3.2196
1.435,0.4398,1.136,0.4091,3.2196
1.44,0.4414,1.14,0.4107,3.2196
1.445,0.443,1.144,0.4122,3.2196
1.45,0.4446,1.148,0.4139,3.2196
1.455,0.4463,1.152,0.4155,3.2196
1.46,0.448,1.1558,0.4172,3.2196
1.465,0.4496,1.1595,0.4188,3.2196
1.47,0.451,1.1629,0.4203,3.2196
1.475,0.4524,1.1665,0.4216,3.2195
1.48,0.4536,1.1701,0.4228,3.2195
1.485,0.4548,1.1737,0.4241,3.2195
1.49,0.456,1.1773,0.4252,3.2195
1.495,0.4572,1.1804,0.4265,3.2195
1.5,0.4585,1.1833,0.4278,3.2195
1.505,0.4599,1.1862,0.4291,3.2195
1.51,0.4613,1.1891,0.4305,3.2194
1.515,0.4628,1.192,0.432,3.2194
1.52,0.4643,1.195,0.4335,3.2194
1.525,0.4658,1.198,0.435,3.2194
1.53,0.4673,1.2011,0.4365,3.2194
1.535,0.4688,1.2043,0.438,3.2194
1.54,0.4703,1.2074,0.4396,3.2194
1.545,0.4719,1.2108,0.4412,3.2194
1.55,0.4736,1.2146,0.4428,3.2194
1.555,0.4753,1.2186,0.4445,3.2195
1.56,0.4771,1.2227,0.4463,3.2195
1.565,0.4788,1.2269,0.4481,3.2194
1.57,0.4806,1.231,0.4499,3.2194
1.575,0.4824,1.2351,0.4516,3.2194
1.58,0.4841,1.2394,0.4533,3.2194
1.585,0.4857,1.2438,0.455,3.2194
1.59,0.4872,1.248,0.4565,3.2194
1.595,0.4888,1.2521,0.458,3.2194
1.6,0.4902,1.2559,0.4595,3.2194
1.605,0.4917,1.2596,0.461,3.2194
1.61,0.4933,1.2633,0.4625,3.2194
1.615,0.4949,1.267,0.4641,3.2194
1.62,0.4965,1.2709,0.4657,3.2194
1.625,0.4982,1.275,0.4674,3.2194
1.63,0.4998,1.2788,0.469,3.2194
1.635,0.5014,1.2824,0.4706,3.2194
1.64,0.5029,1.2857,0.4721,3.2194
1.645,0.5043,1.289,0.4735,3.2194
1.65,0.5056,1.2924,0.4748,3.2195
1.655,0.5068,1.296,0.476,3.2195
1.66,0.508,1.2997,0.4772,3.2195
1.665,0.5092,1.3033,0.4785,3.2195
1.67,0.5105,1.3066,0.4798,3.2195
1.675,0.5118,1.3095,0.4811,3.2195
1.68,0.5132,1.3123,0.4825,3.2194
1.685,0.5147,1.3153,0.4839,3.2194
1.69,0.5161,1.3184,0.4854,3.2194
1.695,0.5176,1.3214,0.4868,3.2194
1.7,0.519,1.3244,0.4883,3.2194
1.705,0.5205,1.3272,0.4897,3.2193
1.71,0.5219,1.33,0.4911,3.2193
1.715,0.5233,1.3331,0.4925,3.2193
1.72,0.5248,1.3364,0.494,3.2194
1.725,0.5263,1.3397,0.4955,3.2194
1.73,0.5278,1.3431,0.4971,3.2194
1.735,0.5294,1.3466,0.4986,3.2194
1.74,0.531,1.3502,0.5003,3.2195
1.745,0.5327,1.354,0.5019,3.2195
1.75,0.5343,1.3577,0.5035,3.2195
1.755,0.5359,1.3615,0.5051,3.2196
1.76,0.5374,1.3654,0.5066,3.2196
1.765,0.5388,1.3692,0.5081,3.2196
1.77,0.5402,1.373,0.5095,3.2196
1.775,0.5417,1.3768,0.5109,3.2196
1.78,0.5431,1.3804,0.5123,3.2196
1.785,0.5446,1.3839,0.5138,3.2196
1.79,0.5461,1.3874,0.5154,3.2196
1.795,0.5478,1.3908,0.517,3.2196
1.8,0.5494,1.3944,0.5187,3.2196
1.805,0.5511,1.3982,0.5204,3.2196
1.81,0.5528,1.402,0.522,3.2195
1.815,0.5543,1.4058,0.5236,3.2195
1.82,0.5558,1.4095,0.525,3.2195
1.825,0.5571,1.413,0.5264,3.2194
1.83,0.5584,1.4165,0.5277,3.2194
1.835,0.5597,1.4201,0.5289,3.2194
1.84,0.5609,1.4236,0.5301,3.2194
1.845,0.5622,1.4269,0.5314,3.2194
1.85,0.5635,1.4301,0.5328,3.2194
1.855,0.5649,1.4331,0.5342,3.2194
1.86,0.5664,1.436,0.5356,3.2194
1.865,0.5678,1.4391,0.5371,3.2194
1.87,0.5693,1.4422,0.5386,3.2194
1.875,0.5708,1.4455,0.54,3.2194
1.88,0.5723,1.4488,0.5415,3.2195
1.885,0.5738,1.4522,0.543,3.2195
1.89,0.5753,1.4554,0.5445,3.2195
1.895,0.5769,1.4588,0.5461,3.2196
1.9,0.5785,1.4623,0.5478,3.2196
1.905,0.5802,1.4661,0.5495,3.2196
1.91,0.582,1.4702,0.5512,3.2197
1.915,0.5838,1.4745,0.553,3.2197
1.92,0.5856,1.479,0.5548,3.2197
1.925,0.5873,1.4835,0.5565,3.2197
1.93,0.5889,1.4879,0.5581,3.2197
1.935,0.5904,1.4923,0.5597,3.2198
1.94,0.5919,1.4965,0.5612,3.2198
1.945,0.5934,1.5004,0.5626,3.2198
1.95,0.5948,1.5042,0.564,3.2198
1.955,0.5963,1.508,0.5656,3.2198
1.96,0.5979,1.5115,0.5671,3.2198
1.965,0.5995,1.515,0.5687,3.2197
1.97,0.6012,1.5186,0.5704,3.2197
1.975,0.6028,1.5221,0.5721,3.2197
1.98,0.6045,1.526,0.5737,3.2197
1.985,0.606,1.5299,0.5752,3.2197
1.99,0.6074,1.5337,0.5767,3.2197
1.995,0.6088,1.5371,0.578,3.2197
2.0,0.61,1.5403,0.5792,3.2197
2.005,0.6111,1.5434,0.5804,3.2197
2.01,0.6123,1.5464,0.5815,3.2197
2.015,0.6135,1.5496,0.5827,3.2197
2.02,0.6147,1.5527,0.584,3.2197
2.025,0.616,1.5559,0.5852,3.2197
2.03,0.6173,1.559,0.5866,3.2197
2.035,0.6187,1.562,0.588,3.2196
2.04,0.6202,1.5649,0.5894,3.2196
2.045,0.6216,1.5678,0.5909,3.2196
2.05,0.623,1.5706,0.5923,3.2196
2.055,0.6245,1.5736,0.5937,3.2196
2.06,0.626,1.5768,0.5952,3.2196
2.065,0.6275,1.5799,0.5967,3.2196
2.07,0.6291,1.5831,0.5983,3.2196
2.075,0.6307,1.5864,0.5999,3.2196
2.08,0.6324,1.5899,0.6016,3.2196
2.085,0.6341,1.5938,0.6034,3.2196
2.09,0.6359,1.598,0.6051,3.2196
2.095,0.6377,1.6022,0.6069,3.2197
2.1,0.6394,1.6065,0.6087,3.2197
2.105,0.6411,1.6108,0.6104,3.2197
2.11,0.6427,1.6151,0.612,3.2197
2.115,0.6443,1.6194,0.6135,3.2198
2.12,0.6458,1.6237,0.6151,3.2197
2.125,0.6474,1.628,0.6166,3.2197
2.13,0.649,1.6323,0.6182,3.2197
2.135,0.6506,1.6365,0.6199,3.2197
2.14,0.6523,1.6405,0.6215,3.2197
2.145,0.654,1.6444,0.6232,3.2197
2.15,0.6557,1.6483,0.6249,3.2197
2.155,0.6573,1.6521,0.6265,3.2197
2.16,0.6588,1.6559,0.6281,3.2197
2.165,0.6603,1.6597,0.6295,3.2197
2.17,0.6616,1.663,0.6308,3.2197
2.175,0.6629,1.666,0.6321,3.2197
2.18,0.6641,1.669,0.6333,3.2197
2.185,0.6654,1.6721,0.6346,3.2196
2.19,0.6666,1.6753,0.6359,3.2196
2.195,0.668,1.6786,0.6372,3.2196
2.2,0.6694,1.6821,0.6386,3.2195
2.205,0.6709,1.6856,0.6401,3.2195
2.21,0.6724,1.6891,0.6416,3.2195
2.215,0.6738,1.6923,0.6431,3.2195
2.22,0.6753,1.6955,0.6445,3.2195
2.225,0.6768,1.6987,0.646,3.2195
2.23,0.6783,1.7021,0.6475,3.2195
2.235,0.6798,1.7056,0.649,3.2195
2.24,0.6813,1.7093,0.6506,3.2195
2.245,0.683,1.7131,0.6522,3.2195
2.25,0.6847,1.7169,0.6539,3.2195
2.255,0.6864,1.7207,0.6556,3.2195
2.26,0.6881,1.7246,0.6574,3.2195
2.265,0.6899,1.7287,0.6591,3.2195
2.27,0.6916,1.7328,0.6608,3.2195
2.275,0.6932,1.7367,0.6624,3.2195
2.28,0.6947,1.7405,0.6639,3.2195
2.285,0.6961,1.7442,0.6653,3.2195
2.29,0.6975,1.7479,0.6667,3.2195
2.295,0.6989,1.7518,0.6681,3.2195
2.3,0.7003,1.7557,0.6695,3.2195
2.305,0.7018,1.7597,0.671,3.2195
2.31,0.7033,1.7639,0.6725,3.2195
2.315,0.7049,1.7679,0.6741,3.2195
2.32,0.7064,1.7716,0.6757,3.2196
2.325,0.708,1.775,0.6773,3.2196
2.33,0.7096,1.7782,0.6788,3.2196
2.335,0.711,1.781,0.6803,3.2196
2.34,0.7124,1.7836,0.6816,3.2196
2.345,0.7137,1.786,0.6829,3.2196
2.35,0.7149,1.7887,0.6841,3.2196
2.355,0.7161,1.7918,0.6853,3.2196
2.36,0.7173,1.7953,0.6866,3.2196
2.365,0.7186,1.7989,0.6878,3.2196
2.37,0.7199,1.8027,0.6892,3.2196
2.375,0.7213,1.8062,0.6906,3.2196
2.38,0.7228,1.8097,0.692,3.2196
2.385,0.7242,1.8131,0.6934,3.2196
2.39,0.7257,1.8163,0.6949,3.2196
2.395,0.7271,1.8194,0.6963,3.2195
2.4,0.7285,1.8224,0.6977,3.2195
2.405,0.7299,1.8252,0.6992,3.2194
2.41,0.7314,1.8281,0.7006,3.2194
2.415,0.7328,1.8312,0.7021,3.2194
2.42,0.7343,1.8345,0.7036,3.2193
2.425,0.7359,1.838,0.7051,3.2193
2.43,0.7375,1.8416,0.7067,3.2193
2.435,0.7391,1.8452,0.7084,3.2193
2.44,0.7407,1.8486,0.71,3.2193
2.445,0.7424,1.8522,0.7116,3.2194
2.45,0.7439,1.8559,0.7132,3.2194
2.455,0.7454,1.8597,0.7147,3.2194
2.46,0.7469,1.8636,0.7161,3.2194
2.465,0.7483,1.8676,0.7175,3.2194
2.47,0.7497,1.8716,0.7189,3.2194
2.475,0.7511,1.8756,0.7204,3.2194
2.48,0.7526,1.8795,0.7218,3.2194
2.485,0.7542,1.8834,0.7234,3.2194
2.49,0.7558,1.8874,0.725,3.2195
2.495,0.7575,1.8912,0.7267,3.2195
2.5,0.7592,1.8948,0.7284,3.2195
2.505,0.7609,1.8984,0.7301,3.2195
2.51,0.7625,1.9019,0.7318,3.2195
2.515,0.7641,1.9056,0.7333,3.2195
2.52,0.7655,1.9093,0.7347,3.2196
2.525,0.7669,1.9129,0.7361,3.2196
2.53,0.7682,1.9162,0.7374,3.2196
2.535,0.7695,1.9196,0.7387,3.2196
2.54,0.7708,1.9229,0.74,3.2196
2.545,0.7722,1.9263,0.7415,3.2196
2.55,0.7737,1.9299,0.7429,3.2196
2.555,0.7752,1.9334,0.7444,3.2196
2.56,0.7767,1.9369,0.746,3.2195
2.565,0.7782,1.9404,0.7475,3.2195
2.57,0.7798,1.9441,0.749,3.2195
2.575,0.7813,1.9477,0.7505,3.2194
2.58,0.7828,1.9515,0.752,3.2194
2.585,0.7844,1.9552,0.7536,3.2194
2.59,0.786,1.9589,0.7552,3.2194
2.595,0.7877,1.9627,0.7569,3.2194
2.6,0.7894,1.9663,0.7586,3.2194
2.605,0.7911,1.9699,0.7603,3.2194
2.61,0.7928,1.9738,0.762,3.2194
2.615,0.7945,1.9778,0.7637,3.2194
2.62,0.7961,1.9821,0.7654,3.2194
2.625,0.7977,1.9864,0.7669,3.2194
2.63,0.7992,1.9907,0.7684,3.2194
2.635,0.8007,1.9948,0.7699,3.2194
2.64,0.8021,1.9988,0.7713,3.2194
2.645,0.8036,2.0027,0.7728,3.2195
2.65,0.805,2.0065,0.7743,3.2195
2.655,0.8065,2.0105,0.7758,3.2195
2.66,0.8081,2.0144,0.7774,3.2196
2.665,0.8098,2.0184,0.779,3.2196
2.67,0.8114,2.0222,0.7807,3.2196
2.675,0.813,2.0258,0.7823,3.2196
2.68,0.8146,2.0295,0.7838,3.2196
2.685,0.816,2.0331,0.7852,3.2196
2.69,0.8173,2.0367,0.7865,3.2196
2.695,0.8185,2.0402,0.7877,3.2196
2.7,0.8197,2.0434,0.789,3.2196
2.705,0.8209,2.0463,0.7902,3.2196
2.71,0.8221,2.0491,0.7914,3.2196
2.715,0.8234,2.0519,0.7927,3.2196
2.72,0.8248,2.0548,0.794,3.2196
2.725,0.8262,2.0579,0.7954,3.2196
2.73,0.8276,2.0611,0.7968,3.2195
2.735,0.829,2.0645,0.7982,3.2195
2.74,0.8304,2.0678,0.7997,3.2195
2.745,0.8319,2.0713,0.8011,3.2195
2.75,0.8333,2.0749,0.8026,3.2195
2.755,0.8348,2.0786,0.804,3.2195
2.76,0.8363,2.0824,0.8055,3.2195
2.765,0.8378,2.0862,0.807,3.2194
2.77,0.8394,2.0899,0.8086,3.2194
2.775,0.841,2.0935,0.8102,3.2194
2.78,0.8427,2.0969,0.8119,3.2194
2.785,0.8444,2.1005,0.8136,3.2195
2.79,0.8461,2.1044,0.8153,3.2195
2.795,0.8477,2.1086,0.817,3.2195
2.8,0.8494,2.113,0.8186,3.2195
2.805,0.8509,2.1173,0.8202,3.2195
2.81,0.8525,2.1213,0.8217,3.2195
2.815,0.854,2.1253,0.8232,3.2195
2.82,0.8555,2.1295,0.8247,3.2196
2.825,0.857,2.1338,0.8263,3.2196
2.83,0.8586,2.1382,0.8278,3.2196
2.835,0.8602,2.1428,0.8295,3.2196
2.84,0.8619,2.1473,0.8312,3.2196
2.845,0.8636,2.1517,0.8329,3.2196
2.85,0.8653,2.1559,0.8345,3.2195
2.855,0.8669,2.1598,0.8361,3.2196
2.86,0.8683,2.1636,0.8375,3.2196
2.865,0.8696,2.1673,0.8388,3.2196
2.87,0.8708,2.1709,0.8401,3.2196
2.875,0.8721,2.1742,0.8413,3.2196
2.88,0.8733,2.1774,0.8425,3.2196
2.885,0.8746,2.1803,0.8438,3.2196
2.89,0.8758,2.1835,0.8451,3.2196
2.895,0.8772,2.187,0.8465,3.2196
2.9,0.8786,2.1906,0.8479,3.2196
2.905,0.8801,2.1943,0.8493,3.2195
2.91,0.8816,2.1979,0.8508,3.2195
2.915,0.883,2.2014,0.8522,3.2195
2.92,0.8844,2.2049,0.8537,3.2195
2.925,0.8859,2.2084,0.8551,3.2195
2.93,0.8874,2.2119,0.8566,3.2195
2.935,0.889,2.2156,0.8582,3.2195
2.94,0.8906,2.2195,0.8598,3.2195
2.945,0.8922,2.2234,0.8615,3.2195
2.95,0.8939,2.2274,0.8631,3.2195
2.955,0.8956,2.2314,0.8648,3.2195
2.96,0.8973,2.2355,0.8666,3.2195
2.965,0.899,2.2398,0.8683,3.2194
2.97,0.9007,2.2443,0.8699,3.2194
2.975,0.9022,2.2487,0.8715,3.2195
2.98,0.9037,2.2532,0.8729,3.2195
2.985,0.9051,2.2575,0.8743,3.2195
2.99,0.9065,2.2617,0.8757,3.2196
2.995,0.9079,2.2659,0.8772,3.2196
3.0,0.9094,2.27,0.8787,3.2196
3.005,0.911,2.2742,0.8802,3.2196
3.01,0.9126,2.2786,0.8819,3.2196
3.015,0.9143,2.283,0.8836,3.2196
3.02,0.916,2.2874,0.8853,3.2196
3.025,0.9177,2.2916,0.8869,3.2196
3.03,0.9193,2.2957,0.8885,3.2196
3.035,0.9207,2.2995,0.89,3.2196
3.04,0.922,2.3033,0.8913,3.2196
3.045,0.9233,2.307,0.8925,3.2196
3.05,0.9245,2.3106,0.8937,3.2196
3.055,0.9257,2.3142,0.8949,3.2196
3.06,0.927,2.3178,0.8962,3.2196
3.065,0.9283,2.3211,0.8975,3.2196
3.07,0.9296,2.3245,0.8989,3.2196
3.075,0.9311,2.3279,0.9003,3.2195
3.08,0.9325,2.3313,0.9018,3.2195
3.085,0.934,2.3351,0.9032,3.2195
3.09,0.9355,2.3389,0.9047,3.2195
3.095,0.9369,2.3428,0.9062,3.2194
