Time,Displacement,Force,Compressive displacement,voltage_1
0.0,0.1353,0.1209,0.0,0.0
0.005,0.1353,0.1215,0.0,0.0
0.01,0.1353,0.122,0.0,0.0
0.015,0.1353,0.1226,0.0,0.0001
0.02,0.1353,0.1229,0.0,0.0001
0.025,0.1353,0.1233,0.0,0.0001
0.03,0.1353,0.1234,0.0,0.0001
0.035,0.1353,0.1231,0.0,0.0001
0.04,0.1353,0.1227,0.0,0.0001
0.045,0.1353,0.1228,0.0,0.0001
0.05,0.1353,0.1228,0.0001,0.0001
0.055,0.1354,0.1225,0.0001,0.0001
0.06,0.1355,0.1219,0.0002,0.0001
0.065,0.1357,0.1209,0.0004,0.0001
0.07,0.1359,0.1203,0.0006,0.0001
0.075,0.136,0.1197,0.0008,0.0001
0.08,0.1362,0.1199,0.0009,0.0001
0.085,0.1364,0.1209,0.0012,0.0001
0.09,0.1369,0.122,0.0016,0.0001
0.095,0.1375,0.1225,0.0022,0.0001
0.1,0.1381,0.123,0.0028,0.0
0.105,0.1388,0.1239,0.0035,0.0
0.11,0.1395,0.1256,0.0043,-0.0002
0.115,0.1404,0.1275,0.0051,-0.0003
0.12,0.1414,0.1299,0.0061,-0.0005
0.125,0.1425,0.1331,0.0072,-0.0006
0.13,0.1438,0.1365,0.0085,-0.0006
0.135,0.1453,0.14,0.01,-0.0006
0.14,0.1469,0.1437,0.0116,-0.0005
0.145,0.1485,0.1474,0.0133,-0.0004
0.15,0.1502,0.1506,0.0149,-0.0003
0.155,0.1518,0.1546,0.0166,-0.0002
0.16,0.1534,0.1594,0.0182,-0.0001
0.165,0.155,0.164,0.0197,-0.0001
0.17,0.1564,0.1689,0.0212,0.0
0.175,0.1578,0.1745,0.0225,0.0
0.18,0.1591,0.1799,0.0238,0.0001
0.185,0.1603,0.1853,0.025,0.0001
0.19,0.1614,0.1905,0.0261,0.0001
0.195,0.1624,0.1948,0.0271,0.0001
0.2,0.1634,0.1986,0.0282,0.0001
0.205,0.1645,0.2027,0.0292,0.0001
0.21,0.1656,0.2073,0.0303,0.0001
0.215,0.1667,0.2118,0.0314,0.0001
0.22,0.168,0.2161,0.0327,0.0001
0.225,0.1693,0.2211,0.034,0.0001
0.23,0.1707,0.2266,0.0354,0.0001
0.235,0.1721,0.2319,0.0368,0.0001
0.24,0.1736,0.2367,0.0383,0.0001
0.245,0.175,0.2417,0.0398,0.0001
0.25,0.1765,0.2465,0.0412,0.0001
0.255,0.1779,0.2509,0.0426,0.0001
0.26,0.1793,0.2544,0.0441,0.0001
0.265,0.1808,0.2575,0.0456,0.0001
0.27,0.1824,0.2603,0.0471,0.0001
0.275,0.184,0.2636,0.0488,0.0001
0.28,0.1857,0.2675,0.0505,0.0001
0.285,0.1875,0.2726,0.0522,0.0001
0.29,0.1893,0.2782,0.054,0.0001
0.295,0.191,0.2841,0.0558,0.0001
0.3,0.1927,0.2898,0.0575,0.0001
0.305,0.1944,0.2947,0.0591,0.0001
0.31,0.1959,0.2992,0.0606,0.0001
0.315,0.1974,0.3038,0.0621,0.0001
0.32,0.1989,0.3082,0.0637,0.0001
0.325,0.2005,0.313,0.0652,0.0001
0.33,0.2021,0.3185,0.0668,0.0001
0.335,0.2038,0.3246,0.0685,0.0001
0.34,0.2056,0.3312,0.0703,0.0001
0.345,0.2074,0.3375,0.0721,0.0001
0.35,0.2092,0.3432,0.0739,0.0001
0.355,0.211,0.3488,0.0757,0.0001
0.36,0.2126,0.3548,0.0773,0.0001
0.365,0.2141,0.3607,0.0788,0.0001
0.37,0.2154,0.3654,0.0801,0.0001
0.375,0.2167,0.3698,0.0815,0.0001
0.38,0.218,0.3742,0.0828,0.0001
0.385,0.2194,0.3781,0.0841,0.0001
0.39,0.2208,0.3821,0.0856,0.0001
0.395,0.2223,0.3867,0.087,0.0001
0.4,0.2238,0.3909,0.0885,0.0001
0.405,0.2253,0.3948,0.09,0.0001
0.41,0.2267,0.3988,0.0914,0.0001
0.415,0.2281,0.4033,0.0929,0.0001
0.42,0.2296,0.4082,0.0943,0.0001
0.425,0.231,0.4138,0.0958,0.0001
0.43,0.2325,0.4194,0.0972,0.0001
0.435,0.234,0.4245,0.0987,0.0001
0.44,0.2356,0.429,0.1003,0.0001
0.445,0.2372,0.4331,0.1019,0.0001
0.45,0.2388,0.4369,0.1036,0.0001
0.455,0.2405,0.4412,0.1052,0.0001
0.46,0.2421,0.4455,0.1068,0.0001
0.465,0.2437,0.4497,0.1085,0.0001
0.47,0.2453,0.4539,0.11,0.0001
0.475,0.2467,0.4583,0.1114,0.0001
0.48,0.2481,0.4622,0.1128,0.0001
0.485,0.2495,0.466,0.1142,0.0001
0.49,0.2509,0.4697,0.1156,0.0001
0.495,0.2523,0.4737,0.117,0.0001
0.5,0.2538,0.4785,0.1185,0.0001
0.505,0.2554,0.4828,0.1201,0.0001
0.51,0.257,0.4867,0.1217,0.0001
0.515,0.2587,0.491,0.1234,0.0001
0.52,0.2603,0.4953,0.125,0.0001
0.525,0.2619,0.5002,0.1266,0.0001
0.53,0.2634,0.5057,0.1281,0.0001
0.535,0.2647,0.5109,0.1294,0.0001
0.54,0.266,0.5154,0.1307,0.0001
0.545,0.2672,0.5191,0.1319,0.0001
0.55,0.2684,0.523,0.1331,0.0001
0.555,0.2696,0.5275,0.1344,0.0001
0.56,0.2709,0.5322,0.1356,0.0001
0.565,0.2722,0.5374,0.137,0.0001
0.57,0.2736,0.5424,0.1384,0.0001
0.575,0.2751,0.5476,0.1398,0.0001
0.58,0.2766,0.5519,0.1413,0.0001
0.585,0.2781,0.5555,0.1428,0.0001
0.59,0.2795,0.5586,0.1443,0.0001
0.595,0.281,0.5618,0.1457,0.0001
0.6,0.2825,0.5646,0.1472,0.0001
0.605,0.284,0.5679,0.1488,0.0001
0.61,0.2857,0.5715,0.1504,0.0001
0.615,0.2873,0.5753,0.1521,0.0001
0.62,0.2891,0.5795,0.1538,0.0001
0.625,0.2908,0.5837,0.1555,0.0001
0.63,0.2925,0.5884,0.1573,0.0001
0.635,0.2943,0.5938,0.159,0.0001
0.64,0.296,0.599,0.1608,0.0001
0.645,0.2977,0.6037,0.1624,0.0001
0.65,0.2993,0.6088,0.164,0.0001
0.655,0.3008,0.6142,0.1655,0.0001
0.66,0.3022,0.6202,0.167,0.0001
0.665,0.3037,0.6261,0.1685,0.0001
0.67,0.3053,0.6312,0.17,0.0001
0.675,0.3068,0.635,0.1716,0.0001
0.68,0.3085,0.6386,0.1732,0.0001
0.685,0.3102,0.6424,0.1749,0.0001
0.69,0.3119,0.647,0.1767,0.0001
0.695,0.3136,0.6513,0.1783,0.0001
0.7,0.3152,0.655,0.1799,0.0001
0.705,0.3166,0.659,0.1814,0.0001
0.71,0.318,0.6629,0.1827,0.0001
0.715,0.3192,0.666,0.1839,0.0001
0.72,0.3204,0.6693,0.1851,0.0001
0.725,0.3216,0.6732,0.1863,0.0001
0.73,0.3229,0.6775,0.1876,0.0001
0.735,0.3243,0.6818,0.189,0.0001
0.74,0.3257,0.6861,0.1904,0.0001
0.745,0.3271,0.69,0.1918,0.0001
0.75,0.3286,0.6942,0.1934,0.0001
0.755,0.3301,0.6991,0.1948,0.0001
0.76,0.3316,0.7042,0.1963,0.0001
0.765,0.333,0.7093,0.1978,0.0001
0.77,0.3345,0.7137,0.1992,0.0001
0.775,0.336,0.7176,0.2007,0.0001
0.78,0.3375,0.7212,0.2023,0.0001
0.785,0.3392,0.7243,0.2039,0.0001
0.79,0.3409,0.7273,0.2056,0.0001
0.795,0.3426,0.7312,0.2073,0.0001
0.8,0.3443,0.7364,0.209,0.0001
0.805,0.346,0.742,0.2107,0.0001
0.81,0.3477,0.7474,0.2124,0.0001
0.815,0.3493,0.7525,0.214,0.0001
0.82,0.3508,0.7566,0.2155,0.0001
0.825,0.3522,0.7601,0.2169,0.0001
0.83,0.3536,0.7635,0.2183,0.0001
0.835,0.355,0.7675,0.2197,0.0001
0.84,0.3565,0.7719,0.2212,0.0001
0.845,0.3579,0.7765,0.2227,0.0001
0.85,0.3595,0.7807,0.2242,0.0001
0.855,0.361,0.785,0.2258,0.0001
0.86,0.3627,0.7893,0.2274,0.0001
0.865,0.3643,0.794,0.229,0.0001
0.87,0.3659,0.7987,0.2307,0.0001
0.875,0.3675,0.803,0.2322,0.0001
0.88,0.3689,0.8067,0.2336,0.0001
0.885,0.3702,0.81,0.2349,0.0001
0.89,0.3714,0.8138,0.2362,0.0001
0.895,0.3727,0.8173,0.2374,0.0001
0.9,0.3739,0.8209,0.2386,0.0001
0.905,0.3752,0.8246,0.2399,0.0001
0.91,0.3766,0.8288,0.2413,0.0001
0.915,0.378,0.8328,0.2427,0.0001
0.92,0.3795,0.8366,0.2442,0.0001
0.925,0.381,0.8405,0.2457,0.0001
0.93,0.3825,0.8444,0.2472,0.0001
0.935,0.3839,0.8484,0.2487,0.0001
0.94,0.3854,0.8524,0.2501,0.0001
0.945,0.3869,0.856,0.2516,0.0001
0.95,0.3884,0.8593,0.2532,0.0001
0.955,0.39,0.8628,0.2548,0.0001
0.96,0.3917,0.8674,0.2564,0.0001
0.965,0.3934,0.873,0.2581,0.0001
0.97,0.3951,0.8792,0.2599,0.0001
0.975,0.3969,0.8858,0.2616,0.0001
0.98,0.3987,0.892,0.2634,0.0001
0.985,0.4004,0.8971,0.2651,0.0001
0.99,0.402,0.901,0.2667,0.0001
0.995,0.4036,0.9045,0.2683,0.0001
1.0,0.405,0.9081,0.2698,0.0001
1.005,0.4065,0.912,0.2712,0.0001
1.01,0.4079,0.9158,0.2727,0.0001
1.015,0.4094,0.9195,0.2742,0.0001
1.02,0.411,0.9236,0.2757,0.0001
1.025,0.4126,0.9283,0.2773,0.0001
1.03,0.4143,0.933,0.279,0.0001
1.035,0.4159,0.938,0.2807,0.0001
1.04,0.4176,0.9429,0.2823,0.0001
1.045,0.4192,0.9477,0.2839,0.0001
1.05,0.4206,0.952,0.2854,0.0001
1.055,0.422,0.956,0.2867,0.0001
1.06,0.4233,0.9588,0.288,0.0001
1.065,0.4245,0.9615,0.2892,0.0001
1.07,0.4256,0.9646,0.2904,0.0001
1.075,0.4268,0.9681,0.2916,0.0001
1.08,0.4282,0.9717,0.2929,0.0001
1.085,0.4296,0.9755,0.2943,0.0001
1.09,0.431,0.9792,0.2957,0.0001
1.095,0.4325,0.983,0.2972,0.0001
1.1,0.4339,0.9861,0.2986,0.0001
1.105,0.4353,0.9888,0.3001,0.0001
1.11,0.4368,0.9917,0.3015,0.0001
1.115,0.4382,0.9949,0.3029,0.0001
1.12,0.4397,0.9987,0.3044,0.0001
1.125,0.4412,1.0036,0.3059,0.0001
1.13,0.4427,1.0094,0.3074,0.0001
1.135,0.4443,1.0152,0.309,0.0001
1.14,0.4459,1.0208,0.3106,0.0001
1.145,0.4476,1.0261,0.3123,0.0001
1.15,0.4492,1.0306,0.314,0.0001
1.155,0.4509,1.0355,0.3156,0.0001
1.16,0.4525,1.0399,0.3172,0.0001
1.165,0.454,1.0449,0.3187,0.0001
1.17,0.4554,1.0497,0.3201,0.0001
1.175,0.4568,1.0547,0.3215,0.0001
1.18,0.4582,1.0595,0.323,0.0001
1.185,0.4597,1.0642,0.3244,0.0001
1.19,0.4612,1.0686,0.3259,0.0001
1.195,0.4628,1.0725,0.3275,0.0001
1.2,0.4644,1.0764,0.3291,0.0001
1.205,0.4661,1.081,0.3308,0.0001
1.21,0.4677,1.0863,0.3325,0.0001
1.215,0.4694,1.0912,0.3341,0.0001
1.22,0.471,1.0957,0.3357,0.0001
1.225,0.4725,1.0998,0.3372,0.0001
1.23,0.4738,1.1039,0.3386,0.0001
1.235,0.4751,1.1084,0.3398,0.0001
1.24,0.4763,1.1129,0.3411,0.0001
1.245,0.4776,1.1175,0.3423,0.0001
1.25,0.4788,1.1218,0.3435,0.0001
1.255,0.4802,1.1255,0.3449,0.0001
1.26,0.4816,1.1287,0.3463,0.0001
1.265,0.4831,1.1317,0.3478,0.0001
1.27,0.4846,1.1351,0.3494,0.0001
1.275,0.4862,1.1392,0.3509,0.0001
1.28,0.4877,1.1441,0.3524,0.0001
1.285,0.4892,1.1492,0.354,0.0001
1.29,0.4908,1.1539,0.3555,0.0001
1.295,0.4923,1.1584,0.3571,0.0001
1.3,0.494,1.1629,0.3587,0.0001
1.305,0.4957,1.1676,0.3604,0.0001
1.31,0.4974,1.1723,0.3622,0.0001
1.315,0.4992,1.1766,0.3639,0.0001
1.32,0.501,1.1807,0.3657,0.0001
1.325,0.5028,1.1854,0.3675,0.0001
1.33,0.5045,1.1909,0.3693,0.0001
1.335,0.5062,1.1969,0.3709,0.0001
1.34,0.5078,1.2026,0.3725,0.0001
1.345,0.5093,1.2073,0.374,0.0001
1.35,0.5108,1.2119,0.3755,0.0001
1.355,0.5123,1.2166,0.377,0.0001
1.36,0.5138,1.2217,0.3785,0.0001
1.365,0.5153,1.2278,0.3801,0.0001
1.37,0.517,1.2337,0.3817,0.0001
1.375,0.5187,1.2391,0.3834,0.0001
1.38,0.5203,1.2447,0.3851,0.0001
1.385,0.522,1.2492,0.3867,0.0001
1.39,0.5235,1.2526,0.3882,0.0001
1.395,0.5249,1.2557,0.3896,0.0001
1.4,0.5262,1.2588,0.3909,0.0001
1.405,0.5274,1.2632,0.3921,0.0001
1.41,0.5286,1.2684,0.3933,0.0001
1.415,0.5298,1.2725,0.3945,0.0001
1.42,0.5311,1.2766,0.3958,0.0001
1.425,0.5324,1.2798,0.3971,0.0001
1.43,0.5338,1.2821,0.3985,0.0001
1.435,0.5352,1.2846,0.3999,0.0001
1.44,0.5367,1.2874,0.4014,0.0001
1.445,0.5382,1.2908,0.4029,0.0001
1.45,0.5396,1.2945,0.4043,0.0001
1.455,0.5411,1.2987,0.4058,0.0001
1.46,0.5425,1.3026,0.4072,0.0001
1.465,0.544,1.3067,0.4087,0.0001
1.47,0.5455,1.3113,0.4102,0.0001
1.475,0.5471,1.316,0.4118,0.0001
1.48,0.5487,1.3211,0.4134,0.0001
1.485,0.5503,1.3262,0.4151,0.0001
1.49,0.552,1.3317,0.4167,0.0001
1.495,0.5537,1.3371,0.4184,0.0001
1.5,0.5553,1.3423,0.4201,0.0001
1.505,0.5569,1.3474,0.4217,0.0001
1.51,0.5585,1.3524,0.4232,0.0001
1.515,0.56,1.3564,0.4247,0.0001
1.52,0.5615,1.3598,0.4262,0.0001
1.525,0.5629,1.3639,0.4276,0.0001
1.53,0.5644,1.3685,0.4291,0.0001
1.535,0.5658,1.3726,0.4306,0.0001
1.54,0.5674,1.3774,0.4321,0.0001
1.545,0.5689,1.3816,0.4337,0.0001
1.55,0.5705,1.385,0.4353,0.0001
1.555,0.5722,1.3886,0.4369,0.0001
1.56,0.5737,1.3927,0.4385,0.0001
1.565,0.5752,1.3976,0.44,0.0001
1.57,0.5766,1.4027,0.4414,0.0001
1.575,0.5779,1.4073,0.4426,0.0001
1.58,0.5791,1.4112,0.4438,0.0001
1.585,0.5803,1.4147,0.445,0.0001
1.59,0.5815,1.4177,0.4462,0.0001
1.595,0.5827,1.4208,0.4475,0.0001
1.6,0.584,1.4244,0.4487,0.0001
1.605,0.5854,1.4292,0.4501,0.0001
1.61,0.5868,1.435,0.4516,0.0001
1.615,0.5883,1.4406,0.453,0.0001
1.62,0.5898,1.4458,0.4546,0.0001
1.625,0.5913,1.4507,0.4561,0.0001
1.63,0.5928,1.4553,0.4575,0.0001
1.635,0.5943,1.4602,0.459,0.0001
1.64,0.5958,1.4653,0.4605,0.0001
1.645,0.5973,1.4702,0.4621,0.0001
1.65,0.5989,1.4751,0.4637,0.0001
1.655,0.6006,1.481,0.4653,0.0001
1.66,0.6022,1.4876,0.467,0.0001
1.665,0.6039,1.4942,0.4686,0.0001
1.67,0.6056,1.5008,0.4703,0.0001
1.675,0.6073,1.5072,0.472,0.0001
1.68,0.6089,1.5131,0.4736,0.0001
1.685,0.6105,1.5191,0.4752,0.0001
1.69,0.612,1.526,0.4767,0.0001
1.695,0.6134,1.5324,0.4781,0.0001
1.7,0.6148,1.5384,0.4796,0.0001
1.705,0.6163,1.5442,0.481,0.0001
1.71,0.6177,1.5498,0.4825,0.0001
1.715,0.6193,1.5553,0.4841,0.0001
1.72,0.621,1.5605,0.4857,0.0001
1.725,0.6227,1.5663,0.4874,0.0001
1.73,0.6245,1.5723,0.4892,0.0001
1.735,0.6262,1.5782,0.4909,0.0001
1.74,0.6278,1.584,0.4925,0.0001
1.745,0.6293,1.5893,0.494,0.0001
1.75,0.6306,1.5945,0.4953,0.0001
1.755,0.6319,1.5999,0.4966,0.0001
1.76,0.6331,1.6046,0.4978,0.0001
1.765,0.6343,1.6093,0.4991,0.0001
1.77,0.6356,1.6148,0.5004,0.0001
1.775,0.637,1.621,0.5017,0.0001
1.78,0.6384,1.6265,0.5031,0.0001
1.785,0.6398,1.6309,0.5046,0.0001
1.79,0.6413,1.6352,0.506,0.0001
1.795,0.6428,1.6396,0.5075,0.0001
1.8,0.6442,1.6444,0.5089,0.0001
1.805,0.6456,1.6491,0.5103,0.0001
1.81,0.647,1.6542,0.5118,0.0001
1.815,0.6485,1.6596,0.5132,0.0001
1.82,0.65,1.6648,0.5147,0.0001
1.825,0.6516,1.6703,0.5163,0.0001
1.83,0.6532,1.6757,0.518,0.0001
1.835,0.6548,1.6812,0.5196,0.0001
1.84,0.6565,1.6866,0.5212,0.0001
1.845,0.6581,1.6917,0.5228,0.0001
1.85,0.6597,1.6967,0.5245,0.0001
1.855,0.6613,1.7017,0.5261,0.0001
1.86,0.6628,1.7064,0.5276,0.0001
1.865,0.6643,1.711,0.529,0.0001
1.87,0.6657,1.716,0.5305,0.0001
1.875,0.6672,1.7215,0.5319,0.0001
1.88,0.6686,1.7274,0.5334,0.0001
1.885,0.6702,1.733,0.5349,0.0001
1.89,0.6717,1.7388,0.5365,0.0001
1.895,0.6734,1.7449,0.5381,0.0001
1.9,0.6751,1.7518,0.5398,0.0001
1.905,0.6768,1.7584,0.5415,0.0001
1.91,0.6785,1.7641,0.5432,0.0001
1.915,0.6801,1.7696,0.5448,0.0001
1.92,0.6815,1.7744,0.5463,0.0001
1.925,0.6829,1.7786,0.5476,0.0001
1.93,0.6842,1.7835,0.5489,0.0001
1.935,0.6854,1.7888,0.5502,0.0001
1.94,0.6867,1.7948,0.5514,0.0001
1.945,0.688,1.8006,0.5527,0.0001
1.95,0.6893,1.806,0.5541,0.0001
1.955,0.6908,1.8113,0.5555,0.0001
1.96,0.6922,1.8166,0.557,0.0001
1.965,0.6937,1.8215,0.5584,0.0001
1.97,0.6951,1.8269,0.5599,0.0001
1.975,0.6966,1.8319,0.5613,0.0001
1.98,0.698,1.8367,0.5627,0.0001
1.985,0.6995,1.8415,0.5642,0.0001
1.99,0.701,1.8465,0.5657,0.0001
1.995,0.7026,1.8515,0.5673,0.0001
2.0,0.7042,1.8569,0.569,0.0001
2.005,0.7059,1.863,0.5706,0.0001
2.01,0.7076,1.8686,0.5724,0.0001
2.015,0.7094,1.8733,0.5741,0.0001
2.02,0.7111,1.8787,0.5759,0.0001
2.025,0.7129,1.8844,0.5776,0.0001
2.03,0.7145,1.8902,0.5792,0.0001
2.035,0.716,1.8953,0.5807,0.0001
2.04,0.7175,1.9002,0.5822,0.0001
2.045,0.7189,1.9048,0.5837,0.0001
2.05,0.7204,1.91,0.5851,0.0001
2.055,0.7219,1.9153,0.5866,0.0001
2.06,0.7234,1.9211,0.5881,0.0001
2.065,0.725,1.9263,0.5897,0.0001
2.07,0.7266,1.9319,0.5914,0.0001
2.075,0.7283,1.9381,0.593,0.0001
2.08,0.7299,1.944,0.5947,0.0001
2.085,0.7315,1.9498,0.5962,0.0001
2.09,0.7328,1.9555,0.5976,0.0001
2.095,0.7341,1.9612,0.5989,0.0001
2.1,0.7353,1.9672,0.6001,0.0001
2.105,0.7365,1.9736,0.6013,0.0001
2.11,0.7377,1.9798,0.6024,0.0001
2.115,0.7389,1.9849,0.6036,0.0001
2.12,0.7402,1.989,0.6049,0.0001
2.125,0.7415,1.9922,0.6063,0.0001
2.13,0.7429,1.9951,0.6076,0.0001
2.135,0.7443,1.9979,0.6091,0.0001
2.14,0.7458,2.0015,0.6105,0.0001
2.145,0.7472,2.0047,0.6119,0.0001
2.15,0.7486,2.0087,0.6133,0.0001
2.155,0.75,2.0141,0.6147,0.0001
2.16,0.7514,2.0198,0.6162,0.0001
2.165,0.7529,2.0258,0.6176,0.0001
2.17,0.7544,2.032,0.6192,0.0001
2.175,0.756,2.0384,0.6208,0.0001
2.18,0.7577,2.0447,0.6224,0.0001
2.185,0.7593,2.0503,0.6241,0.0001
2.19,0.761,2.0556,0.6257,0.0001
2.195,0.7627,2.0609,0.6274,0.0001
2.2,0.7643,2.0669,0.629,0.0001
2.205,0.7659,2.0726,0.6306,0.0001
2.21,0.7674,2.0785,0.6321,0.0001
2.215,0.7688,2.0845,0.6335,0.0001
2.22,0.7702,2.0905,0.6349,0.0001
2.225,0.7716,2.0968,0.6363,0.0001
2.23,0.7731,2.1031,0.6378,0.0001
2.235,0.7746,2.1084,0.6393,0.0001
2.24,0.7762,2.1136,0.6409,0.0001
2.245,0.7779,2.1191,0.6426,0.0001
2.25,0.7795,2.1246,0.6443,0.0001
2.255,0.7813,2.1303,0.646,0.0001
2.26,0.7829,2.1363,0.6476,0.0001
2.265,0.7845,2.1424,0.6492,0.0001
2.27,0.7859,2.1478,0.6506,0.0001
2.275,0.7872,2.1529,0.6519,0.0001
2.28,0.7885,2.1576,0.6532,0.0001
2.285,0.7898,2.1629,0.6545,0.0001
2.29,0.7912,2.168,0.6559,0.0001
2.295,0.7926,2.1731,0.6573,0.0001
2.3,0.794,2.1789,0.6588,0.0001
2.305,0.7956,2.1853,0.6603,0.0001
2.31,0.7972,2.1917,0.6619,0.0001
2.315,0.7988,2.198,0.6635,0.0001
2.32,0.8004,2.2037,0.6651,0.0001
2.325,0.802,2.209,0.6667,0.0001
2.33,0.8035,2.2141,0.6682,0.0001
2.335,0.8051,2.2194,0.6698,0.0001
2.34,0.8066,2.2253,0.6714,0.0001
2.345,0.8083,2.231,0.673,0.0001
2.35,0.8099,2.2367,0.6747,0.0001
2.355,0.8117,2.242,0.6764,0.0001
2.36,0.8134,2.2472,0.6781,0.0001
2.365,0.8151,2.253,0.6798,0.0001
2.37,0.8167,2.2593,0.6815,0.0001
2.375,0.8183,2.2658,0.6831,0.0001
2.38,0.8199,2.2725,0.6846,0.0001
2.385,0.8213,2.2781,0.6861,0.0001
2.39,0.8228,2.2831,0.6875,0.0001
2.395,0.8243,2.2885,0.689,0.0001
2.4,0.8258,2.2939,0.6905,0.0001
2.405,0.8273,2.2995,0.6921,0.0001
2.41,0.8289,2.3052,0.6936,0.0001
2.415,0.8306,2.3114,0.6953,0.0001
2.42,0.8323,2.3181,0.697,0.0001
2.425,0.8339,2.3246,0.6987,0.0001
2.43,0.8355,2.3312,0.7002,0.0001
2.435,0.837,2.3378,0.7017,0.0001
2.44,0.8383,2.3442,0.7031,0.0001
2.445,0.8396,2.35,0.7043,0.0001
2.45,0.8408,2.3556,0.7055,0.0001
2.455,0.842,2.3608,0.7067,0.0001
2.46,0.8432,2.3661,0.7079,0.0001
2.465,0.8445,2.3712,0.7092,0.0001
2.47,0.8459,2.3763,0.7106,0.0001
2.475,0.8473,2.3808,0.712,0.0001
2.48,0.8488,2.3851,0.7135,0.0001
2.485,0.8502,2.3894,0.715,0.0001
2.49,0.8516,2.3933,0.7164,0.0001
2.495,0.853,2.3973,0.7177,0.0001
2.5,0.8544,2.401,0.7191,0.0001
2.505,0.8558,2.4055,0.7205,0.0001
2.51,0.8572,2.4104,0.722,0.0001
2.515,0.8587,2.4157,0.7235,0.0001
2.52,0.8603,2.4207,0.725,0.0001
2.525,0.8619,2.426,0.7266,0.0001
2.53,0.8636,2.4317,0.7283,0.0001
2.535,0.8652,2.4383,0.7299,0.0001
2.54,0.8669,2.4452,0.7316,0.0001
2.545,0.8685,2.452,0.7332,0.0001
2.55,0.87,2.4579,0.7348,0.0001
2.555,0.8715,2.4631,0.7363,0.0001
2.56,0.873,2.4675,0.7377,0.0001
2.565,0.8745,2.4718,0.7392,0.0001
2.57,0.8759,2.4767,0.7407,0.0001
2.575,0.8775,2.4824,0.7422,0.0001
2.58,0.879,2.4885,0.7438,0.0001
2.585,0.8806,2.4951,0.7454,0.0001
2.59,0.8823,2.5016,0.747,0.0001
2.595,0.8839,2.5085,0.7487,0.0001
2.6,0.8856,2.5158,0.7504,0.0001
2.605,0.8872,2.5232,0.752,0.0001
2.61,0.8887,2.5303,0.7535,0.0001
2.615,0.8901,2.5372,0.7549,0.0001
2.62,0.8915,2.543,0.7562,0.0001
2.625,0.8927,2.5479,0.7574,0.0001
2.63,0.8939,2.5528,0.7586,0.0001
2.635,0.8951,2.5588,0.7598,0.0001
2.64,0.8964,2.5641,0.7611,0.0001
2.645,0.8977,2.5696,0.7625,0.0001
2.65,0.8991,2.5752,0.7639,0.0001
2.655,0.9006,2.5804,0.7653,0.0001
2.66,0.9021,2.5856,0.7668,0.0001
2.665,0.9036,2.5908,0.7683,0.0001
2.67,0.905,2.5953,0.7698,0.0001
2.675,0.9065,2.6006,0.7712,0.0001
2.68,0.908,2.6057,0.7728,0.0001
2.685,0.9096,2.6109,0.7743,0.0001
2.69,0.9111,2.6166,0.7759,0.0001
2.695,0.9128,2.6225,0.7775,0.0001
2.7,0.9145,2.6289,0.7792,0.0001
2.705,0.9162,2.6361,0.781,0.0001
2.71,0.918,2.6427,0.7827,0.0001
2.715,0.9197,2.6481,0.7844,0.0001
2.72,0.9212,2.6541,0.786,0.0001
2.725,0.9227,2.6604,0.7875,0.0001
2.73,0.9242,2.6664,0.7889,0.0001
2.735,0.9256,2.6726,0.7903,0.0001
2.74,0.9269,2.6795,0.7916,0.0001
2.745,0.9283,2.6867,0.793,0.0001
2.75,0.9297,2.6942,0.7944,0.0001
2.755,0.9312,2.7014,0.7959,0.0001
2.76,0.9327,2.7079,0.7975,0.0001
2.765,0.9344,2.7135,0.7991,0.0001
2.77,0.936,2.7189,0.8007,0.0001
2.775,0.9376,2.7243,0.8024,0.0001
2.78,0.9392,2.7299,0.8039,0.0001
2.785,0.9406,2.7353,0.8054,0.0001
2.79,0.942,2.7407,0.8067,0.0001
2.795,0.9433,2.7462,0.808,0.0001
2.8,0.9445,2.7515,0.8092,0.0001
2.805,0.9457,2.7559,0.8104,0.0001
2.81,0.9469,2.7596,0.8117,0.0001
2.815,0.9483,2.7637,0.813,0.0001
2.82,0.9496,2.7685,0.8144,0.0001
2.825,0.9511,2.7731,0.8158,0.0001
2.83,0.9526,2.7776,0.8173,0.0001
2.835,0.9541,2.7827,0.8188,0.0001
2.84,0.9556,2.7883,0.8203,0.0001
2.845,0.9571,2.7942,0.8218,0.0001
2.85,0.9586,2.8009,0.8233,0.0001
2.855,0.9601,2.8079,0.8249,0.0001
2.86,0.9617,2.8147,0.8264,0.0001
2.865,0.9634,2.8212,0.8281,0.0002
2.87,0.965,2.8277,0.8298,0.0002
2.875,0.9667,2.8345,0.8314,0.0002
2.88,0.9684,2.841,0.8332,0.0002
2.885,0.9702,2.8477,0.8349,0.0002
2.89,0.972,2.8548,0.8367,0.0002
2.895,0.9737,2.8621,0.8384,0.0002
2.9,0.9753,2.8691,0.84,0.0002
2.905,0.9768,2.8757,0.8415,0.0002
2.91,0.9783,2.8825,0.843,0.0002
2.915,0.9797,2.8888,0.8444,0.0002
2.92,0.9811,2.8951,0.8459,0.0002
2.925,0.9826,2.9011,0.8474,0.0002
2.93,0.9842,2.9078,0.8489,0.0002
2.935,0.9858,2.9153,0.8505,0.0002
2.94,0.9875,2.9229,0.8522,0.0002
2.945,0.9891,2.9302,0.8539,0.0002
2.95,0.9908,2.9371,0.8555,0.0002
2.955,0.9924,2.9428,0.8571,0.0002
2.96,0.9938,2.9479,0.8586,0.0002
2.965,0.9952,2.9526,0.8599,0.0002
2.97,0.9964,2.9578,0.8611,0.0002
2.975,0.9976,2.9633,0.8624,0.0002
2.98,0.9989,2.9691,0.8636,0.0002
2.985,1.0002,2.9754,0.8649,0.0002
2.99,1.0015,2.9819,0.8663,0.0001
2.995,1.003,2.9878,0.8677,0.0001
3.0,1.0044,2.9933,0.8692,0.0001
3.005,1.0059,2.9989,0.8706,0.0001
3.01,1.0074,3.0052,0.8721,0.0001
