Time,Displacement,Force,Compressive displacement,voltage_1
0.0,0.3522,0.1026,0.0,0.0015
0.005,0.3522,0.1022,0.0,0.0015
0.01,0.3522,0.1018,0.0,0.0015
0.015,0.3522,0.1013,0.0,0.0015
0.02,0.3522,0.1003,0.0,0.0015
0.025,0.3522,0.0992,0.0,0.0015
0.03,0.3522,0.0982,0.0,0.0015
0.035,0.3522,0.0981,0.0,0.0015
0.04,0.3522,0.0984,0.0,0.0015
0.045,0.3522,0.0987,0.0001,0.0015
0.05,0.3523,0.0986,0.0001,0.0015
0.055,0.3524,0.099,0.0002,0.0015
0.06,0.3526,0.1,0.0004,0.0015
0.065,0.353,0.1019,0.0008,0.0015
0.07,0.3535,0.1038,0.0013,0.0015
0.075,0.3542,0.1056,0.002,0.0015
0.08,0.3553,0.1084,0.0031,0.0015
0.085,0.3565,0.1113,0.0044,0.0015
0.09,0.358,0.1141,0.0058,0.0015
0.095,0.3596,0.1173,0.0074,0.0015
0.1,0.3613,0.1209,0.0091,0.0015
0.105,0.3629,0.1254,0.0107,0.0015
0.11,0.3644,0.1304,0.0122,0.0015
0.115,0.3659,0.1357,0.0137,0.0015
0.12,0.3674,0.1415,0.0152,0.0015
0.125,0.369,0.1476,0.0169,0.0015
0.13,0.3707,0.1531,0.0185,0.0015
0.135,0.3725,0.1589,0.0203,0.0015
0.14,0.3742,0.1651,0.022,0.0015
0.145,0.376,0.1714,0.0238,0.0015
0.15,0.3776,0.1782,0.0254,0.0015
0.155,0.3791,0.1855,0.0269,0.0015
0.16,0.3804,0.1929,0.0282,0.0015
0.165,0.3817,0.2003,0.0295,0.0015
0.17,0.3829,0.2069,0.0307,0.0015
0.175,0.3841,0.2128,0.032,0.0015
0.18,0.3854,0.2188,0.0332,0.0015
0.185,0.3867,0.2245,0.0346,0.0015
0.19,0.3882,0.2295,0.036,0.0015
0.195,0.3896,0.2341,0.0374,0.0015
0.2,0.3911,0.2391,0.0389,0.0015
0.205,0.3925,0.2447,0.0403,0.0015
0.21,0.3939,0.2504,0.0417,0.0015
0.215,0.3953,0.2567,0.0431,0.0015
0.22,0.3968,0.2637,0.0446,0.0015
0.225,0.3983,0.2708,0.0461,0.0015
0.23,0.3999,0.278,0.0477,0.0015
0.235,0.4016,0.2852,0.0494,0.0015
0.24,0.4032,0.2924,0.051,0.0015
0.245,0.4049,0.2998,0.0527,0.0015
0.25,0.4065,0.3067,0.0544,0.0015
0.255,0.4082,0.3138,0.056,0.0015
0.26,0.4099,0.3208,0.0577,0.0015
0.265,0.4115,0.3283,0.0593,0.0015
0.27,0.413,0.3358,0.0608,0.0015
0.275,0.4145,0.3429,0.0623,0.0015
0.28,0.416,0.3501,0.0638,0.0015
0.285,0.4174,0.357,0.0652,0.0015
0.29,0.4188,0.3635,0.0666,0.0015
0.295,0.4203,0.3699,0.0681,0.0015
0.3,0.4219,0.3766,0.0697,0.0015
0.305,0.4235,0.3837,0.0713,0.0015
0.31,0.4251,0.3908,0.073,0.0015
0.315,0.4268,0.398,0.0746,0.0015
0.32,0.4284,0.4048,0.0762,0.0015
0.325,0.4298,0.411,0.0777,0.0015
0.33,0.4312,0.4168,0.079,0.0015
0.335,0.4325,0.4228,0.0803,0.0015
0.34,0.4337,0.4286,0.0815,0.0015
0.345,0.4349,0.4345,0.0827,0.0015
0.35,0.4361,0.4401,0.0839,0.0015
0.355,0.4373,0.4456,0.0851,0.0015
0.36,0.4387,0.4506,0.0865,0.0015
0.365,0.4401,0.4556,0.0879,0.0015
0.37,0.4415,0.4604,0.0893,0.0015
0.375,0.443,0.465,0.0908,0.0015
0.38,0.4445,0.4702,0.0923,0.0015
0.385,0.4459,0.4758,0.0937,0.0015
0.39,0.4474,0.4816,0.0952,0.0015
0.395,0.4488,0.4871,0.0966,0.0015
0.4,0.4503,0.4928,0.0981,0.0015
0.405,0.4519,0.4987,0.0997,0.0015
0.41,0.4535,0.5054,0.1013,0.0015
0.415,0.4552,0.513,0.103,0.0015
0.42,0.4569,0.5205,0.1047,0.0015
0.425,0.4586,0.5274,0.1064,0.0015
0.43,0.4603,0.534,0.1081,0.0015
0.435,0.462,0.5404,0.1098,0.0015
0.44,0.4636,0.5466,0.1114,0.0015
0.445,0.4651,0.553,0.1129,0.0015
0.45,0.4666,0.5599,0.1144,0.0015
0.455,0.468,0.5663,0.1158,0.0015
0.46,0.4694,0.5726,0.1172,0.0015
0.465,0.4709,0.5782,0.1187,0.0015
0.47,0.4723,0.5842,0.1201,0.0015
0.475,0.4739,0.5902,0.1217,0.0015
0.48,0.4755,0.5965,0.1233,0.0015
0.485,0.4771,0.6035,0.1249,0.0015
0.49,0.4787,0.6102,0.1265,0.0015
0.495,0.4803,0.6172,0.1281,0.0015
0.5,0.4817,0.6241,0.1295,0.0015
0.505,0.4831,0.631,0.1309,0.0015
0.51,0.4843,0.6376,0.1321,0.0015
0.515,0.4855,0.6438,0.1333,0.0015
0.52,0.4867,0.6504,0.1345,0.0015
0.525,0.4879,0.6573,0.1357,0.0015
0.53,0.4891,0.6634,0.137,0.0015
0.535,0.4905,0.6687,0.1383,0.0015
0.54,0.4918,0.6737,0.1396,0.0015
0.545,0.4933,0.678,0.1411,0.0015
0.55,0.4947,0.6827,0.1425,0.0015
0.555,0.4962,0.6873,0.144,0.0015
0.56,0.4976,0.6923,0.1454,0.0015
0.565,0.499,0.6975,0.1468,0.0015
0.57,0.5004,0.7037,0.1483,0.0015
0.575,0.502,0.7104,0.1498,0.0015
0.58,0.5035,0.7173,0.1513,0.0015
0.585,0.5051,0.7239,0.1529,0.0015
0.59,0.5068,0.7302,0.1546,0.0015
0.595,0.5084,0.7367,0.1563,0.0015
0.6,0.5102,0.7432,0.158,0.0015
0.605,0.5119,0.7497,0.1597,0.0015
0.61,0.5136,0.7565,0.1614,0.0015
0.615,0.5152,0.7639,0.163,0.0015
0.62,0.5167,0.7714,0.1645,0.0015
0.625,0.5182,0.7788,0.166,0.0015
0.63,0.5197,0.7862,0.1675,0.0015
0.635,0.5211,0.7937,0.1689,0.0015
0.64,0.5226,0.8019,0.1704,0.0015
0.645,0.5241,0.8095,0.1719,0.0015
0.65,0.5258,0.8167,0.1736,0.0015
0.655,0.5275,0.8241,0.1753,0.0015
0.66,0.5292,0.8309,0.177,0.0015
0.665,0.5309,0.8369,0.1787,0.0015
0.67,0.5326,0.8428,0.1804,0.0015
0.675,0.5341,0.8491,0.1819,0.0015
0.68,0.5355,0.8556,0.1833,0.0015
0.685,0.5368,0.8622,0.1846,0.0015
0.69,0.5381,0.8693,0.1859,0.0015
0.695,0.5394,0.876,0.1872,0.0015
0.7,0.5407,0.8817,0.1885,0.0015
0.705,0.542,0.8871,0.1898,0.0015
0.71,0.5434,0.8927,0.1912,0.0015
0.715,0.545,0.899,0.1928,0.0015
0.72,0.5465,0.9052,0.1943,0.0015
0.725,0.548,0.9112,0.1958,0.0015
0.73,0.5495,0.9166,0.1973,0.0015
0.735,0.5509,0.9223,0.1987,0.0015
0.74,0.5523,0.9281,0.2001,0.0015
0.745,0.5538,0.9337,0.2016,0.0015
0.75,0.5552,0.9395,0.2031,0.0015
0.755,0.5568,0.9456,0.2046,0.0015
0.76,0.5584,0.9521,0.2062,0.0015
0.765,0.56,0.9591,0.2078,0.0015
0.77,0.5617,0.9656,0.2095,0.0015
0.775,0.5634,0.9721,0.2112,0.0015
0.78,0.5651,0.979,0.2129,0.0015
0.785,0.5667,0.986,0.2145,0.0015
0.79,0.5683,0.993,0.2161,0.0015
0.795,0.5698,1.0001,0.2176,0.0015
0.8,0.5713,1.007,0.2191,0.0015
0.805,0.5728,1.0142,0.2206,0.0015
0.81,0.5743,1.0213,0.2221,0.0015
0.815,0.5759,1.0284,0.2237,0.0015
0.82,0.5775,1.0356,0.2253,0.0015
0.825,0.5792,1.0429,0.227,0.0015
0.83,0.581,1.0502,0.2288,0.0015
0.835,0.5827,1.0579,0.2305,0.0015
0.84,0.5843,1.066,0.2322,0.0015
0.845,0.5859,1.0737,0.2337,0.0015
0.85,0.5873,1.0817,0.2352,0.0015
0.855,0.5887,1.0892,0.2365,0.0015
0.86,0.59,1.0965,0.2378,0.0015
0.865,0.5912,1.1033,0.239,0.0015
0.87,0.5924,1.1095,0.2402,0.0015
0.875,0.5937,1.1153,0.2415,0.0015
0.88,0.595,1.1213,0.2428,0.0015
0.885,0.5964,1.1266,0.2443,0.0015
0.89,0.5979,1.1322,0.2457,0.0015
0.895,0.5993,1.1382,0.2471,0.0015
0.9,0.6008,1.1447,0.2486,0.0015
0.905,0.6022,1.1509,0.25,0.0015
0.91,0.6036,1.1569,0.2514,0.0015
0.915,0.6051,1.1619,0.2529,0.0015
0.92,0.6066,1.1676,0.2544,0.0015
0.925,0.6082,1.1739,0.256,0.0015
0.93,0.6098,1.1805,0.2576,0.0015
0.935,0.6114,1.1876,0.2592,0.0015
0.94,0.6131,1.1958,0.2609,0.0015
0.945,0.6148,1.2047,0.2626,0.0015
0.95,0.6165,1.2133,0.2643,0.0015
0.955,0.6182,1.2214,0.266,0.0015
0.96,0.6198,1.229,0.2676,0.0015
0.965,0.6214,1.2369,0.2692,0.0015
0.97,0.6229,1.2451,0.2707,0.0015
0.975,0.6244,1.2537,0.2722,0.0015
0.98,0.6259,1.262,0.2737,0.0015
0.985,0.6274,1.2696,0.2752,0.0015
0.99,0.629,1.2777,0.2768,0.0015
0.995,0.6306,1.2859,0.2784,0.0015
1.0,0.6322,1.2933,0.2801,0.0015
1.005,0.6339,1.3008,0.2817,0.0015
1.01,0.6356,1.3085,0.2834,0.0015
1.015,0.6371,1.3164,0.2849,0.0015
1.02,0.6385,1.324,0.2863,0.0015
1.025,0.6399,1.3318,0.2877,0.0015
1.03,0.6411,1.3385,0.2889,0.0015
1.035,0.6423,1.345,0.2902,0.0015
1.04,0.6435,1.3521,0.2914,0.0015
1.045,0.6448,1.3592,0.2926,0.0015
1.05,0.646,1.3658,0.2938,0.0015
1.055,0.6472,1.3718,0.295,0.0015
1.06,0.6486,1.3774,0.2964,0.0015
1.065,0.6499,1.3817,0.2977,0.0015
1.07,0.6514,1.3864,0.2992,0.0015
1.075,0.6527,1.3914,0.3005,0.0015
1.08,0.6541,1.397,0.3019,0.0015
1.085,0.6555,1.4033,0.3033,0.0015
1.09,0.6569,1.4096,0.3047,0.0015
1.095,0.6583,1.416,0.3061,0.0015
1.1,0.6598,1.4218,0.3076,0.0015
1.105,0.6613,1.428,0.3091,0.0015
1.11,0.6629,1.4342,0.3107,0.0015
1.115,0.6646,1.4406,0.3124,0.0015
1.12,0.6663,1.4473,0.3141,0.0015
1.125,0.668,1.4543,0.3158,0.0015
1.13,0.6697,1.4615,0.3175,0.0015
1.135,0.6714,1.4693,0.3192,0.0015
1.14,0.673,1.4777,0.3208,0.0015
1.145,0.6745,1.4866,0.3223,0.0015
1.15,0.676,1.4946,0.3238,0.0015
1.155,0.6774,1.502,0.3252,0.0015
1.16,0.6789,1.5098,0.3267,0.0015
1.165,0.6804,1.5177,0.3282,0.0015
1.17,0.6819,1.5264,0.3297,0.0015
1.175,0.6836,1.5353,0.3314,0.0015
1.18,0.6853,1.5441,0.3331,0.0015
1.185,0.687,1.553,0.3349,0.0015
1.19,0.6887,1.5611,0.3365,0.0015
1.195,0.6902,1.5681,0.338,0.0015
1.2,0.6916,1.5753,0.3394,0.0015
1.205,0.6929,1.5824,0.3407,0.0015
1.21,0.6942,1.5888,0.342,0.0015
1.215,0.6954,1.5948,0.3432,0.0015
1.22,0.6966,1.6012,0.3444,0.0015
1.225,0.6979,1.6079,0.3457,0.0015
1.23,0.6993,1.6143,0.3471,0.0015
1.235,0.7007,1.621,0.3485,0.0015
1.24,0.7021,1.6276,0.3499,0.0015
1.245,0.7036,1.6343,0.3514,0.0015
1.25,0.705,1.6407,0.3528,0.0015
1.255,0.7065,1.6468,0.3543,0.0015
1.26,0.7079,1.6532,0.3557,0.0015
1.265,0.7094,1.66,0.3572,0.0015
1.27,0.7108,1.6666,0.3586,0.0015
1.275,0.7124,1.6729,0.3602,0.0015
1.28,0.714,1.6799,0.3618,0.0015
1.285,0.7157,1.6872,0.3635,0.0015
1.29,0.7173,1.6942,0.3651,0.0015
1.295,0.7191,1.7016,0.3669,0.0015
1.3,0.7208,1.7093,0.3686,0.0015
1.305,0.7224,1.7173,0.3702,0.0015
1.31,0.7239,1.7253,0.3718,0.0015
1.315,0.7254,1.7336,0.3732,0.0015
1.32,0.7268,1.742,0.3746,0.0015
1.325,0.7283,1.7504,0.3761,0.0015
1.33,0.7298,1.7588,0.3776,0.0044
1.335,0.7312,1.7666,0.379,0.1355
1.34,0.7328,1.7741,0.3806,0.4655
1.345,0.7345,1.7815,0.3823,0.8962
1.35,0.7363,1.7893,0.3841,1.3572
1.355,0.7381,1.7973,0.3859,1.8012
1.36,0.7399,1.8047,0.3877,2.1993
1.365,0.7416,1.8118,0.3894,2.5364
1.37,0.7432,1.8196,0.391,2.8077
1.375,0.7447,1.8275,0.3925,3.0154
1.38,0.7461,1.8354,0.3939,3.1659
1.385,0.7474,1.8432,0.3952,3.2677
1.39,0.7487,1.8505,0.3965,3.3303
1.395,0.75,1.8565,0.3978,3.3629
1.4,0.7514,1.8623,0.3992,3.3735
1.405,0.7529,1.8686,0.4007,3.3693
1.41,0.7544,1.8761,0.4022,3.3559
1.415,0.7558,1.8834,0.4036,3.3376
1.42,0.7573,1.8903,0.4051,3.3177
1.425,0.7587,1.8968,0.4065,3.2983
1.43,0.7601,1.9028,0.4079,3.2808
1.435,0.7615,1.9085,0.4094,3.2658
1.44,0.763,1.9149,0.4108,3.2536
1.445,0.7645,1.9222,0.4123,3.2442
1.45,0.766,1.9304,0.4138,3.2374
1.455,0.7675,1.9388,0.4153,3.2327
1.46,0.7691,1.9471,0.4169,3.2298
1.465,0.7708,1.9551,0.4186,3.2282
1.47,0.7724,1.9632,0.4202,3.2276
1.475,0.774,1.9713,0.4218,3.2277
1.48,0.7756,1.9792,0.4234,3.2283
1.485,0.7771,1.9872,0.4249,3.2291
1.49,0.7786,1.9948,0.4264,3.2299
1.495,0.78,2.0026,0.4278,3.2308
1.5,0.7814,2.01,0.4292,3.2315
1.505,0.7828,2.0174,0.4306,3.2322
1.51,0.7843,2.0246,0.4321,3.2327
1.515,0.7859,2.0319,0.4337,3.2331
1.52,0.7875,2.0386,0.4353,3.2335
1.525,0.7891,2.0453,0.4369,3.2337
1.53,0.7908,2.0525,0.4386,3.2338
1.535,0.7924,2.061,0.4402,3.2339
1.54,0.7939,2.0698,0.4417,3.2339
1.545,0.7952,2.0777,0.443,3.234
1.55,0.7965,2.0852,0.4443,3.2339
1.555,0.7977,2.0921,0.4455,3.2339
1.56,0.7989,2.0985,0.4467,3.2339
1.565,0.8,2.1048,0.4478,3.2339
1.57,0.8012,2.1108,0.449,3.2338
1.575,0.8024,2.117,0.4502,3.2338
1.58,0.8037,2.1231,0.4515,3.2338
1.585,0.8051,2.1293,0.4529,3.2337
1.59,0.8065,2.1354,0.4543,3.2337
1.595,0.808,2.1412,0.4558,3.2337
1.6,0.8094,2.1469,0.4572,3.2337
1.605,0.8108,2.1537,0.4586,3.2337
1.61,0.8123,2.1618,0.4601,3.2337
1.615,0.8137,2.1702,0.4616,3.2337
1.62,0.8153,2.1783,0.4631,3.2337
1.625,0.8168,2.1864,0.4646,3.2337
1.63,0.8185,2.1942,0.4663,3.2337
1.635,0.8202,2.2019,0.468,3.2337
1.64,0.822,2.2095,0.4698,3.2336
1.645,0.8238,2.2181,0.4716,3.2336
1.65,0.8255,2.2269,0.4733,3.2336
1.655,0.8273,2.2353,0.4751,3.2336
1.66,0.8289,2.2437,0.4767,3.2336
1.665,0.8304,2.2525,0.4782,3.2336
1.67,0.8319,2.2612,0.4797,3.2336
1.675,0.8333,2.2693,0.4811,3.2336
1.68,0.8348,2.2785,0.4826,3.2336
1.685,0.8363,2.2878,0.4841,3.2336
1.69,0.838,2.2967,0.4858,3.2336
1.695,0.8397,2.3055,0.4875,3.2336
1.7,0.8414,2.314,0.4892,3.2337
1.705,0.8431,2.3227,0.4909,3.2337
1.71,0.8448,2.3318,0.4926,3.2337
1.715,0.8464,2.3411,0.4942,3.2337
1.72,0.8479,2.3498,0.4957,3.2337
1.725,0.8492,2.3579,0.497,3.2337
1.73,0.8504,2.3658,0.4982,3.2337
1.735,0.8516,2.3734,0.4994,3.2337
1.74,0.8529,2.3808,0.5007,3.2338
1.745,0.8542,2.3884,0.502,3.2338
1.75,0.8556,2.3955,0.5034,3.2338
1.755,0.857,2.4024,0.5048,3.2338
1.76,0.8585,2.4096,0.5063,3.2337
1.765,0.86,2.4163,0.5078,3.2337
1.77,0.8615,2.4228,0.5094,3.2337
1.775,0.863,2.4298,0.5108,3.2337
1.78,0.8645,2.4368,0.5123,3.2337
1.785,0.866,2.4438,0.5138,3.2337
1.79,0.8675,2.4504,0.5153,3.2337
1.795,0.869,2.4575,0.5168,3.2337
1.8,0.8706,2.4652,0.5184,3.2337
1.805,0.8722,2.4735,0.52,3.2337
1.81,0.8739,2.4818,0.5217,3.2337
1.815,0.8755,2.49,0.5234,3.2337
1.82,0.8772,2.499,0.525,3.2336
1.825,0.8788,2.5086,0.5266,3.2336
1.83,0.8804,2.5183,0.5282,3.2336
1.835,0.8819,2.5279,0.5297,3.2336
1.84,0.8834,2.5372,0.5312,3.2336
1.845,0.8848,2.5468,0.5326,3.2335
1.85,0.8863,2.5557,0.5341,3.2335
1.855,0.8878,2.5642,0.5356,3.2335
1.86,0.8894,2.5729,0.5372,3.2336
1.865,0.8911,2.5818,0.5389,3.2336
1.87,0.8928,2.5912,0.5406,3.2336
1.875,0.8946,2.6011,0.5424,3.2336
1.88,0.8964,2.6108,0.5442,3.2336
1.885,0.898,2.62,0.5458,3.2336
1.89,0.8995,2.6289,0.5473,3.2336
1.895,0.9009,2.6367,0.5487,3.2336
1.9,0.9022,2.6439,0.55,3.2336
1.905,0.9034,2.6513,0.5512,3.2336
1.91,0.9046,2.6589,0.5524,3.2337
1.915,0.9059,2.6663,0.5537,3.2337
1.92,0.9073,2.6732,0.5551,3.2337
1.925,0.9086,2.6807,0.5565,3.2337
1.93,0.9101,2.6884,0.5579,3.2338
1.935,0.9115,2.696,0.5593,3.2338
1.94,0.9129,2.7038,0.5608,3.2338
1.945,0.9143,2.7114,0.5621,3.2338
1.95,0.9157,2.7186,0.5635,3.2338
1.955,0.9171,2.726,0.5649,3.2338
1.96,0.9186,2.7338,0.5664,3.2337
1.965,0.92,2.7413,0.5678,3.2337
1.97,0.9216,2.7488,0.5694,3.2337
1.975,0.9232,2.7565,0.571,3.2337
1.98,0.9249,2.7646,0.5727,3.2337
1.985,0.9266,2.7735,0.5744,3.2337
1.99,0.9283,2.7824,0.5761,3.2337
1.995,0.93,2.7912,0.5779,3.2337
2.0,0.9318,2.8,0.5796,3.2337
2.005,0.9334,2.809,0.5812,3.2337
2.01,0.9349,2.818,0.5828,3.2337
2.015,0.9364,2.827,0.5843,3.2337
2.02,0.9379,2.8361,0.5857,3.2337
2.025,0.9394,2.8457,0.5872,3.2336
2.03,0.941,2.8554,0.5888,3.2336
2.035,0.9426,2.8644,0.5904,3.2336
2.04,0.9442,2.8732,0.592,3.2336
2.045,0.9459,2.8829,0.5937,3.2336
2.05,0.9475,2.8928,0.5953,3.2336
2.055,0.9491,2.9025,0.5969,3.2336
2.06,0.9505,2.9115,0.5983,3.2336
2.065,0.9519,2.9198,0.5997,3.2336
2.07,0.9531,2.9276,0.6009,3.2336
2.075,0.9543,2.9355,0.6021,3.2336
2.08,0.9555,2.9429,0.6033,3.2336
2.085,0.9566,2.9499,0.6044,3.2336
2.09,0.9578,2.9575,0.6056,3.2336
2.095,0.9591,2.9646,0.6069,3.2336
2.1,0.9604,2.971,0.6082,3.2336
2.105,0.9619,2.9777,0.6097,3.2336
2.11,0.9633,2.9848,0.6111,3.2336
2.115,0.9648,2.9921,0.6126,3.2337
2.12,0.9662,2.9997,0.614,3.2337
2.125,0.9676,3.0073,0.6154,3.2337
2.13,0.969,3.0151,0.6168,3.2337
2.135,0.9705,3.0234,0.6183,3.2337
2.14,0.972,3.0319,0.6198,3.2337
2.145,0.9735,3.0407,0.6214,3.2337
2.15,0.9752,3.0494,0.623,3.2337
2.155,0.9768,3.0579,0.6246,3.2337
2.16,0.9785,3.066,0.6263,3.2337
2.165,0.9802,3.0742,0.628,3.2337
2.17,0.9819,3.0823,0.6297,3.2337
2.175,0.9835,3.0912,0.6313,3.2337
2.18,0.9851,3.1003,0.6329,3.2337
2.185,0.9866,3.1097,0.6344,3.2337
2.19,0.988,3.1192,0.6358,3.2337
2.195,0.9894,3.1282,0.6372,3.2337
2.2,0.9908,3.1363,0.6386,3.2337
2.205,0.9923,3.1444,0.6401,3.2337
2.21,0.9938,3.153,0.6416,3.2337
2.215,0.9954,3.1621,0.6432,3.2337
2.22,0.9971,3.1719,0.6449,3.2337
2.225,0.9988,3.1819,0.6466,3.2336
2.23,1.0004,3.1912,0.6482,3.2336
2.235,1.002,3.2004,0.6498,3.2336
2.24,1.0034,3.2091,0.6512,3.2336
2.245,1.0048,3.2175,0.6526,3.2336
2.25,1.0061,3.2258,0.6539,3.2336
2.255,1.0073,3.2343,0.6551,3.2336
2.26,1.0086,3.2433,0.6564,3.2336
2.265,1.0098,3.2521,0.6576,3.2336
2.27,1.0112,3.2603,0.659,3.2336
2.275,1.0126,3.2679,0.6604,3.2336
2.28,1.014,3.2748,0.6618,3.2336
2.285,1.0155,3.2811,0.6633,3.2337
2.29,1.017,3.2873,0.6648,3.2337
2.295,1.0185,3.2945,0.6663,3.2337
2.3,1.0199,3.3019,0.6677,3.2337
2.305,1.0214,3.3095,0.6692,3.2337
2.31,1.0229,3.3169,0.6707,3.2337
2.315,1.0245,3.3244,0.6724,3.2337
2.32,1.0262,3.3327,0.674,3.2337
2.325,1.028,3.3419,0.6758,3.2337
2.33,1.0297,3.3515,0.6776,3.2337
2.335,1.0315,3.3608,0.6793,3.2337
2.34,1.0333,3.3715,0.6811,3.2337
2.345,1.0351,3.3831,0.6829,3.2337
2.35,1.0368,3.3945,0.6846,3.2337
2.355,1.0384,3.4055,0.6862,3.2338
2.36,1.04,3.416,0.6878,3.2338
2.365,1.0415,3.4264,0.6893,3.2338
2.37,1.043,3.437,0.6908,3.2338
2.375,1.0446,3.4477,0.6924,3.2338
2.38,1.0461,3.458,0.6939,3.2338
2.385,1.0477,3.4681,0.6955,3.2338
2.39,1.0493,3.4776,0.6971,3.2338
2.395,1.0509,3.4863,0.6987,3.2338
2.4,1.0525,3.4944,0.7003,3.2338
2.405,1.0541,3.502,0.7019,3.2337
2.41,1.0555,3.5095,0.7033,3.2337
2.415,1.0568,3.5172,0.7046,3.2337
2.42,1.058,3.5261,0.7058,3.2337
2.425,1.0592,3.5348,0.707,3.2337
2.43,1.0604,3.5425,0.7082,3.2337
2.435,1.0616,3.5496,0.7094,3.2336
2.44,1.0629,3.5563,0.7107,3.2336
2.445,1.0643,3.5626,0.7121,3.2336
2.45,1.0657,3.5688,0.7135,3.2336
2.455,1.0671,3.5751,0.7149,3.2336
2.46,1.0685,3.5818,0.7163,3.2336
2.465,1.0699,3.5892,0.7177,3.2336
2.47,1.0713,3.5968,0.7191,3.2336
2.475,1.0727,3.6049,0.7205,3.2336
2.48,1.0741,3.614,0.7219,3.2336
2.485,1.0755,3.6236,0.7233,3.2336
2.49,1.077,3.6329,0.7248,3.2336
2.495,1.0785,3.6418,0.7263,3.2336
2.5,1.0801,3.6507,0.7279,3.2336
2.505,1.0818,3.6599,0.7296,3.2336
2.51,1.0834,3.6688,0.7312,3.2337
2.515,1.085,3.6777,0.7328,3.2337
2.52,1.0867,3.6872,0.7345,3.2337
2.525,1.0883,3.6974,0.7361,3.2337
2.53,1.0899,3.7081,0.7377,3.2337
2.535,1.0913,3.7183,0.7391,3.2337
2.54,1.0928,3.7281,0.7406,3.2337
2.545,1.0942,3.7378,0.7421,3.2337
2.55,1.0957,3.7468,0.7435,3.2337
2.555,1.0973,3.7556,0.7451,3.2337
2.56,1.0989,3.7642,0.7467,3.2337
2.565,1.1005,3.7731,0.7483,3.2337
2.57,1.1023,3.7818,0.7501,3.2337
2.575,1.104,3.7909,0.7518,3.2337
2.58,1.1057,3.801,0.7535,3.2337
2.585,1.1072,3.811,0.755,3.2337
2.59,1.1086,3.8208,0.7564,3.2337
2.595,1.1098,3.8304,0.7577,3.2336
2.6,1.1111,3.8396,0.7589,3.2336
2.605,1.1123,3.8483,0.7601,3.2336
2.61,1.1135,3.8567,0.7614,3.2336
2.615,1.1149,3.8648,0.7627,3.2336
2.62,1.1162,3.8726,0.7641,3.2336
2.625,1.1177,3.8799,0.7655,3.2337
2.63,1.1191,3.8867,0.7669,3.2337
2.635,1.1206,3.8936,0.7684,3.2337
2.64,1.1221,3.9004,0.7699,3.2337
2.645,1.1235,3.9077,0.7713,3.2337
2.65,1.1249,3.9153,0.7727,3.2337
2.655,1.1265,3.9232,0.7743,3.2337
2.66,1.1281,3.931,0.7759,3.2337
2.665,1.1297,3.9395,0.7775,3.2337
2.67,1.1314,3.9492,0.7792,3.2337
2.675,1.1331,3.96,0.7809,3.2337
2.68,1.1349,3.9712,0.7827,3.2337
2.685,1.1366,3.9823,0.7844,3.2337
2.69,1.1383,3.9927,0.7861,3.2337
2.695,1.14,4.0029,0.7878,3.2337
2.7,1.1416,4.0131,0.7894,3.2337
2.705,1.1431,4.0237,0.7909,3.2337
2.71,1.1445,4.0341,0.7923,3.2337
2.715,1.1459,4.0446,0.7937,3.2337
2.72,1.1474,4.0552,0.7952,3.2337
2.725,1.1489,4.0653,0.7967,3.2336
2.73,1.1505,4.0744,0.7983,3.2336
2.735,1.1521,4.0836,0.7999,3.2337
2.74,1.1538,4.0938,0.8016,3.2337
2.745,1.1555,4.1045,0.8033,3.2337
2.75,1.1571,4.1148,0.8049,3.2337
2.755,1.1586,4.1246,0.8064,3.2337
2.76,1.16,4.1345,0.8078,3.2337
2.765,1.1613,4.1436,0.8091,3.2337
2.77,1.1624,4.1513,0.8102,3.2337
2.775,1.1636,4.1588,0.8114,3.2337
2.78,1.1648,4.1671,0.8126,3.2337
2.785,1.1661,4.1758,0.8139,3.2337
2.79,1.1673,4.1839,0.8152,3.2337
2.795,1.1687,4.1912,0.8165,3.2336
2.8,1.1702,4.1981,0.818,3.2336
2.805,1.1717,4.2048,0.8195,3.2336
2.81,1.1731,4.2115,0.8209,3.2336
2.815,1.1745,4.2189,0.8223,3.2336
2.82,1.176,4.2267,0.8238,3.2336
2.825,1.1775,4.235,0.8253,3.2336
2.83,1.179,4.2432,0.8268,3.2336
2.835,1.1805,4.2513,0.8283,3.2336
2.84,1.1821,4.2599,0.8299,3.2336
2.845,1.1838,4.269,0.8316,3.2336
2.85,1.1854,4.2784,0.8332,3.2337
2.855,1.1872,4.2886,0.835,3.2337
2.86,1.1889,4.2997,0.8367,3.2337
2.865,1.1905,4.3107,0.8383,3.2337
2.87,1.1921,4.3215,0.8399,3.2337
2.875,1.1936,4.331,0.8414,3.2337
2.88,1.1951,4.3404,0.8429,3.2337
2.885,1.1966,4.3507,0.8444,3.2337
2.89,1.198,4.3613,0.8458,3.2337
2.895,1.1995,4.3715,0.8473,3.2337
2.9,1.201,4.3821,0.8488,3.2337
2.905,1.2026,4.3925,0.8504,3.2337
2.91,1.2043,4.4027,0.8521,3.2337
2.915,1.206,4.4135,0.8538,3.2337
2.92,1.2077,4.4287,0.8555,3.2337
2.925,1.2094,4.4564,0.8572,3.2337
2.93,1.211,4.5029,0.8588,3.2337
2.935,1.2124,4.5707,0.8602,3.2337
2.94,1.2138,4.6603,0.8616,3.2337
2.945,1.215,4.7689,0.8628,3.2337
2.95,1.2163,4.8938,0.8641,3.2337
2.955,1.2176,5.0314,0.8654,3.2337
2.96,1.2189,5.1785,0.8667,3.2337
2.965,1.2203,5.3336,0.8681,3.2336
2.97,1.2218,5.4974,0.8696,3.2336
2.975,1.2233,5.6695,0.8711,3.2336
2.98,1.2248,5.8496,0.8726,3.2336
2.985,1.2263,6.0376,0.8741,3.2335
2.99,1.2278,6.2335,0.8756,3.2335
2.995,1.2293,6.4364,0.8771,3.2335
3.0,1.2308,6.6448,0.8786,3.2335
3.005,1.2324,6.8584,0.8802,3.2335
