Time,Displacement,Force,Compressive displacement,voltage_1
0.0,1.1786,0.1022,0.0,0.0001
0.005,1.1786,0.1009,0.0,0.0001
0.01,1.1786,0.1001,0.0,0.0001
0.015,1.1786,0.0999,0.0,0.0001
0.02,1.1786,0.0997,0.0,0.0001
0.025,1.1786,0.0999,0.0,0.0001
0.03,1.1786,0.1004,0.0,0.0001
0.035,1.1786,0.1011,0.0,0.0001
0.04,1.1786,0.1013,0.0,0.0001
0.045,1.1787,0.1012,0.0001,0.0001
0.05,1.1788,0.1016,0.0002,0.0001
0.055,1.179,0.1022,0.0004,0.0001
0.06,1.1794,0.1035,0.0007,0.0001
0.065,1.1799,0.1051,0.0013,0.0001
0.07,1.1807,0.1066,0.0021,0.0001
0.075,1.1817,0.1082,0.0031,0.0001
0.08,1.183,0.1099,0.0044,0.0001
0.085,1.1844,0.1115,0.0058,0.0001
0.09,1.186,0.1131,0.0074,0.0001
0.095,1.1876,0.115,0.009,0.0001
0.1,1.1892,0.1174,0.0106,0.0001
0.105,1.1908,0.1204,0.0122,0.0001
0.11,1.1924,0.1241,0.0138,0.0001
0.115,1.1941,0.1283,0.0154,0.0001
0.12,1.1957,0.1326,0.0171,0.0001
0.125,1.1973,0.1372,0.0187,0.0001
0.13,1.1989,0.1417,0.0203,0.0001
0.135,1.2004,0.1461,0.0218,0.0001
0.14,1.2018,0.1502,0.0232,0.0001
0.145,1.2031,0.1536,0.0244,0.0001
0.15,1.2043,0.157,0.0256,0.0001
0.155,1.2054,0.16,0.0268,0.0001
0.16,1.2066,0.1632,0.028,0.0001
0.165,1.2078,0.1669,0.0292,0.0001
0.17,1.209,0.1707,0.0304,0.0001
0.175,1.2104,0.1746,0.0318,0.0001
0.18,1.2118,0.1779,0.0332,0.0001
0.185,1.2132,0.1813,0.0346,0.0001
0.19,1.2147,0.1845,0.0361,0.0001
0.195,1.2161,0.1878,0.0375,0.0001
0.2,1.2176,0.1909,0.039,0.0001
0.205,1.219,0.1937,0.0404,0.0001
0.21,1.2204,0.1965,0.0418,0.0001
0.215,1.2218,0.1996,0.0432,0.0001
0.22,1.2234,0.2036,0.0448,0.0001
0.225,1.2249,0.2086,0.0463,0.0001
0.23,1.2266,0.2133,0.048,0.0001
0.235,1.2283,0.2173,0.0497,0.0001
0.24,1.23,0.2213,0.0514,0.0001
0.245,1.2316,0.2254,0.053,0.0001
0.25,1.2333,0.2292,0.0547,0.0001
0.255,1.2348,0.2331,0.0562,0.0001
0.26,1.2362,0.2373,0.0576,0.0001
0.265,1.2376,0.241,0.059,0.0001
0.27,1.239,0.2447,0.0604,0.0001
0.275,1.2403,0.2487,0.0617,0.0001
0.28,1.2417,0.2531,0.0631,0.0001
0.285,1.2432,0.2579,0.0646,0.0001
0.29,1.2447,0.2624,0.0661,0.0001
0.295,1.2463,0.267,0.0677,0.0001
0.3,1.2479,0.2723,0.0693,0.0001
0.305,1.2496,0.2776,0.071,0.0001
0.31,1.2512,0.2824,0.0726,0.0001
0.315,1.2527,0.2868,0.0741,0.0001
0.32,1.2541,0.2907,0.0755,0.0001
0.325,1.2555,0.2948,0.0769,0.0001
0.33,1.2567,0.2991,0.0781,0.0001
0.335,1.2579,0.3026,0.0793,0.0001
0.34,1.2591,0.3057,0.0805,0.0001
0.345,1.2604,0.309,0.0818,0.0001
0.35,1.2617,0.3127,0.0831,0.0001
0.355,1.2631,0.3162,0.0845,0.0001
0.36,1.2646,0.3195,0.086,0.0001
0.365,1.2661,0.3231,0.0875,0.0001
0.37,1.2676,0.3269,0.089,0.0001
0.375,1.2691,0.3311,0.0905,0.0001
0.38,1.2706,0.3351,0.092,0.0001
0.385,1.2722,0.3388,0.0936,0.0001
0.39,1.2738,0.3433,0.0952,0.0001
0.395,1.2754,0.3476,0.0968,0.0001
0.4,1.2771,0.3519,0.0985,0.0001
0.405,1.2788,0.3559,0.1002,0.0001
0.41,1.2806,0.36,0.102,0.0001
0.415,1.2824,0.3645,0.1038,0.0001
0.42,1.2842,0.3686,0.1056,0.0001
0.425,1.286,0.3735,0.1074,0.0001
0.43,1.2876,0.3791,0.109,0.0001
0.435,1.2892,0.385,0.1106,0.0001
0.44,1.2907,0.3904,0.1121,0.0001
0.445,1.2922,0.3954,0.1136,0.0001
0.45,1.2937,0.4003,0.1151,0.0001
0.455,1.2952,0.4054,0.1166,0.0001
0.46,1.2968,0.4107,0.1181,0.0001
0.465,1.2984,0.4165,0.1198,0.0001
0.47,1.3001,0.4222,0.1215,0.0001
0.475,1.3017,0.4279,0.1231,0.0001
0.48,1.3034,0.4323,0.1248,0.0001
0.485,1.3049,0.4357,0.1263,0.0001
0.49,1.3063,0.4389,0.1277,0.0001
0.495,1.3076,0.4426,0.129,0.0001
0.5,1.3089,0.4455,0.1303,0.0001
0.505,1.3101,0.4478,0.1315,0.0001
0.51,1.3114,0.45,0.1328,0.0001
0.515,1.3127,0.452,0.1341,0.0001
0.52,1.314,0.4549,0.1354,0.0001
0.525,1.3154,0.4577,0.1368,0.0001
0.53,1.3169,0.4606,0.1383,0.0001
0.535,1.3184,0.4636,0.1398,0.0001
0.54,1.3199,0.467,0.1412,0.0001
0.545,1.3213,0.4708,0.1427,0.0001
0.55,1.3227,0.4752,0.1441,0.0001
0.555,1.3242,0.4804,0.1456,0.0001
0.56,1.3257,0.4858,0.1471,0.0001
0.565,1.3272,0.4909,0.1486,0.0001
0.57,1.3288,0.4955,0.1502,0.0001
0.575,1.3304,0.4999,0.1518,0.0001
0.58,1.3321,0.5039,0.1535,0.0001
0.585,1.3337,0.5077,0.1551,0.0001
0.59,1.3354,0.512,0.1568,0.0001
0.595,1.3371,0.5167,0.1585,0.0001
0.6,1.3387,0.521,0.1601,0.0001
0.605,1.3403,0.5254,0.1617,0.0001
0.61,1.3417,0.5302,0.1631,0.0001
0.615,1.3431,0.5354,0.1645,0.0001
0.62,1.3445,0.5401,0.1659,0.0001
0.625,1.346,0.5444,0.1674,0.0001
0.63,1.3475,0.5487,0.1689,0.0001
0.635,1.3491,0.5529,0.1705,0.0001
0.64,1.3507,0.5573,0.1721,0.0001
0.645,1.3524,0.5619,0.1738,0.0001
0.65,1.3541,0.5665,0.1755,0.0001
0.655,1.3558,0.571,0.1772,0.0001
0.66,1.3573,0.575,0.1787,0.0001
0.665,1.3587,0.5785,0.1801,0.0001
0.67,1.36,0.5823,0.1814,0.0
0.675,1.3612,0.586,0.1826,-0.0002
0.68,1.3624,0.5899,0.1838,-0.0829
0.685,1.3636,0.5937,0.185,-0.3768
0.69,1.3649,0.5974,0.1862,-0.7925
0.695,1.3662,0.6002,0.1876,-1.2526
0.7,1.3676,0.6028,0.189,-1.7049
0.705,1.369,0.6058,0.1904,-2.1163
0.71,1.3705,0.6085,0.1919,-2.4689
0.715,1.372,0.6119,0.1934,-2.7561
0.72,1.3734,0.6157,0.1948,-2.9785
0.725,1.3748,0.6201,0.1962,-3.1418
0.73,1.3763,0.6246,0.1977,-3.2542
0.735,1.3778,0.6293,0.1992,-3.3252
0.74,1.3794,0.6337,0.2008,-3.364
0.745,1.381,0.6391,0.2024,-3.3791
0.75,1.3827,0.6445,0.204,-3.3777
0.755,1.3843,0.6493,0.2057,-3.366
0.76,1.3861,0.6537,0.2074,-3.3485
0.765,1.3878,0.6583,0.2092,-3.3287
0.77,1.3895,0.6623,0.2109,-3.309
0.775,1.3911,0.6665,0.2125,-3.2909
0.78,1.3926,0.671,0.214,-3.2753
0.785,1.3941,0.6753,0.2155,-3.2625
0.79,1.3956,0.6799,0.217,-3.2525
0.795,1.3971,0.6847,0.2185,-3.2451
0.8,1.3986,0.6887,0.22,-3.2399
0.805,1.4002,0.6919,0.2216,-3.2366
0.81,1.4019,0.6953,0.2233,-3.2347
0.815,1.4036,0.699,0.225,-3.2339
0.82,1.4053,0.7037,0.2267,-3.2339
0.825,1.407,0.7093,0.2284,-3.2343
0.83,1.4086,0.7141,0.23,-3.235
0.835,1.41,0.7185,0.2314,-3.2358
0.84,1.4114,0.7231,0.2328,-3.2367
0.845,1.4127,0.7271,0.234,-3.2375
0.85,1.4139,0.7308,0.2353,-3.2381
0.855,1.4152,0.7343,0.2366,-3.2387
0.86,1.4165,0.7379,0.2379,-3.2391
0.865,1.4178,0.7421,0.2392,-3.2395
0.87,1.4193,0.7466,0.2407,-3.2397
0.875,1.4208,0.7509,0.2422,-3.2399
0.88,1.4224,0.7549,0.2438,-3.24
0.885,1.4239,0.7592,0.2453,-3.24
0.89,1.4254,0.7639,0.2468,-3.2401
0.895,1.4269,0.7685,0.2483,-3.2401
0.9,1.4284,0.7729,0.2498,-3.2401
0.905,1.43,0.7773,0.2513,-3.2401
0.91,1.4315,0.7816,0.2529,-3.24
0.915,1.4332,0.7858,0.2545,-3.24
0.92,1.4348,0.7901,0.2562,-3.24
0.925,1.4365,0.7942,0.2579,-3.24
0.93,1.4382,0.7987,0.2596,-3.2399
0.935,1.4398,0.8038,0.2612,-3.2399
0.94,1.4415,0.8094,0.2629,-3.2399
0.945,1.4431,0.8148,0.2645,-3.2399
0.95,1.4446,0.8192,0.266,-3.2399
0.955,1.446,0.8237,0.2674,-3.2398
0.96,1.4474,0.8287,0.2688,-3.2398
0.965,1.4488,0.8333,0.2702,-3.2398
0.97,1.4503,0.8374,0.2717,-3.2398
0.975,1.4518,0.8417,0.2732,-3.2399
0.98,1.4534,0.8471,0.2748,-3.2399
0.985,1.4551,0.8525,0.2765,-3.2399
0.99,1.4568,0.8577,0.2782,-3.2399
0.995,1.4585,0.8625,0.2798,-3.2399
1.0,1.4601,0.8666,0.2815,-3.2399
1.005,1.4616,0.87,0.283,-3.2399
1.01,1.463,0.8728,0.2843,-3.2399
1.015,1.4643,0.8768,0.2856,-3.2399
1.02,1.4655,0.8818,0.2869,-3.2399
1.025,1.4667,0.8872,0.2881,-3.2399
1.03,1.4679,0.8934,0.2893,-3.2399
1.035,1.4692,0.8995,0.2906,-3.2398
1.04,1.4706,0.9049,0.292,-3.2398
1.045,1.472,0.9093,0.2934,-3.2398
1.05,1.4735,0.9126,0.2949,-3.2398
1.055,1.475,0.9157,0.2964,-3.2398
1.06,1.4765,0.9184,0.2979,-3.2398
1.065,1.478,0.9217,0.2993,-3.2398
1.07,1.4794,0.9255,0.3008,-3.2397
1.075,1.4809,0.9294,0.3023,-3.2397
1.08,1.4825,0.9337,0.3039,-3.2397
1.085,1.4841,0.9386,0.3055,-3.2397
1.09,1.4857,0.944,0.3071,-3.2398
1.095,1.4874,0.9497,0.3088,-3.2398
1.1,1.4892,0.956,0.3106,-3.2398
1.105,1.4909,0.9617,0.3123,-3.2398
1.11,1.4927,0.967,0.3141,-3.2398
1.115,1.4944,0.9724,0.3157,-3.2398
1.12,1.4959,0.9779,0.3173,-3.2398
1.125,1.4974,0.9831,0.3188,-3.2399
1.13,1.4989,0.9885,0.3203,-3.2399
1.135,1.5003,0.9941,0.3217,-3.2399
1.14,1.5017,0.9998,0.3231,-3.2399
1.145,1.5032,1.0053,0.3246,-3.2399
1.15,1.5048,1.0106,0.3262,-3.2399
1.155,1.5063,1.0162,0.3277,-3.24
1.16,1.508,1.0222,0.3294,-3.24
1.165,1.5096,1.0284,0.331,-3.24
1.17,1.5112,1.0344,0.3326,-3.24
1.175,1.5128,1.0398,0.3342,-3.24
1.18,1.5142,1.0455,0.3356,-3.24
1.185,1.5155,1.0518,0.3369,-3.24
1.19,1.5168,1.058,0.3382,-3.24
1.195,1.518,1.0638,0.3393,-3.2399
1.2,1.5191,1.0683,0.3405,-3.2399
1.205,1.5204,1.0724,0.3417,-3.2399
1.21,1.5216,1.0768,0.343,-3.2399
1.215,1.523,1.0809,0.3444,-3.2399
1.22,1.5244,1.0856,0.3458,-3.2398
1.225,1.5258,1.0912,0.3472,-3.2398
1.23,1.5272,1.0964,0.3486,-3.2398
1.235,1.5286,1.1018,0.35,-3.2398
1.24,1.53,1.1079,0.3514,-3.2398
1.245,1.5314,1.1138,0.3528,-3.2398
1.25,1.5328,1.1195,0.3542,-3.2398
1.255,1.5342,1.126,0.3556,-3.2399
1.26,1.5357,1.1335,0.3571,-3.2399
1.265,1.5373,1.1412,0.3586,-3.2399
1.27,1.5388,1.1494,0.3602,-3.2399
1.275,1.5404,1.1583,0.3618,-3.2399
1.28,1.5421,1.1676,0.3635,-3.2399
1.285,1.5437,1.1773,0.3651,-3.2399
1.29,1.5453,1.1876,0.3667,-3.2399
1.295,1.5469,1.1986,0.3683,-3.2399
1.3,1.5484,1.2095,0.3698,-3.2399
1.305,1.5499,1.2208,0.3712,-3.2399
1.31,1.5513,1.2323,0.3727,-3.2399
1.315,1.5527,1.2433,0.3741,-3.2399
1.32,1.5542,1.2552,0.3756,-3.2399
1.325,1.5557,1.2678,0.3771,-3.2399
1.33,1.5574,1.2801,0.3788,-3.2399
1.335,1.5591,1.2927,0.3805,-3.2399
1.34,1.5608,1.3057,0.3822,-3.2399
1.345,1.5626,1.3193,0.3839,-3.2399
1.35,1.5642,1.3332,0.3856,-3.2399
1.355,1.5657,1.3474,0.3871,-3.2399
1.36,1.5671,1.3612,0.3885,-3.2399
1.365,1.5684,1.3748,0.3898,-3.2399
1.37,1.5696,1.3888,0.391,-3.2399
1.375,1.5708,1.4033,0.3922,-3.2399
1.38,1.5721,1.4174,0.3935,-3.2398
1.385,1.5734,1.4315,0.3948,-3.2398
1.39,1.5748,1.4465,0.3962,-3.2398
1.395,1.5762,1.4619,0.3976,-3.2398
1.4,1.5777,1.4776,0.3991,-3.2398
1.405,1.5793,1.4933,0.4007,-3.2398
1.41,1.5808,1.5086,0.4022,-3.2398
1.415,1.5823,1.5246,0.4037,-3.2398
1.42,1.5838,1.5416,0.4052,-3.2399
1.425,1.5854,1.5599,0.4067,-3.2399
1.43,1.5869,1.5802,0.4083,-3.2399
1.435,1.5886,1.601,0.41,-3.24
1.44,1.5904,1.6222,0.4118,-3.24
1.445,1.5921,1.6451,0.4135,-3.24
1.45,1.5939,1.669,0.4153,-3.24
1.455,1.5957,1.6944,0.4171,-3.24
1.46,1.5974,1.7215,0.4188,-3.24
1.465,1.5991,1.7514,0.4205,-3.24
1.47,1.6007,1.784,0.4221,-3.24
1.475,1.6023,1.8192,0.4237,-3.24
1.48,1.6038,1.8574,0.4252,-3.24
1.485,1.6053,1.8977,0.4267,-3.24
1.49,1.6067,1.94,0.4281,-3.24
1.495,1.6083,1.9834,0.4297,-3.2399
1.5,1.6099,2.028,0.4313,-3.2399
1.505,1.6116,2.0753,0.4329,-3.2399
1.51,1.6133,2.1262,0.4346,-3.2399
1.515,1.6149,2.1812,0.4363,-3.2399
1.52,1.6165,2.2412,0.4379,-3.2399
1.525,1.618,2.3062,0.4394,-3.2399
1.53,1.6194,2.3756,0.4407,-3.2399
1.535,1.6206,2.4494,0.442,-3.2399
1.54,1.6218,2.525,0.4432,-3.2398
1.545,1.623,2.602,0.4444,-3.2398
1.55,1.6242,2.6808,0.4456,-3.2398
1.555,1.6254,2.7611,0.4468,-3.2398
1.56,1.6267,2.8428,0.4481,-3.2398
1.565,1.6281,2.9261,0.4494,-3.2398
1.57,1.6295,3.0124,0.4508,-3.2399
1.575,1.6309,3.1023,0.4523,-3.2399
1.58,1.6323,3.197,0.4537,-3.24
1.585,1.6337,3.2968,0.4551,-3.24
1.59,1.6351,3.4016,0.4565,-3.24
1.595,1.6365,3.5107,0.4579,-3.24
1.6,1.638,3.6236,0.4594,-3.24
1.605,1.6395,3.74,0.4609,-3.2401
1.61,1.641,3.8605,0.4624,-3.2401
1.615,1.6427,3.9858,0.464,-3.2401
1.62,1.6443,4.1154,0.4657,-3.2401
1.625,1.646,4.2501,0.4674,-3.2401
1.63,1.6477,4.3909,0.4691,-3.2401
1.635,1.6493,4.5375,0.4707,-3.2401
1.64,1.6509,4.6897,0.4723,-3.2401
1.645,1.6525,4.8456,0.4739,-3.2402
1.65,1.654,5.0029,0.4754,-3.2402
1.655,1.6554,5.1595,0.4768,-3.2402
1.66,1.6568,5.3139,0.4782,-3.2402
1.665,1.6583,5.4661,0.4797,-3.2401
1.67,1.6598,5.616,0.4812,-3.2401
1.675,1.6614,5.7649,0.4828,-3.2401
1.68,1.663,5.9137,0.4844,-3.2401
1.685,1.6647,6.0648,0.4861,-3.2401
1.69,1.6663,6.2192,0.4877,-3.24
1.695,1.668,6.3772,0.4893,-3.24
1.7,1.6695,6.5389,0.4909,-3.24
1.705,1.6709,6.7021,0.4923,-3.24
1.71,1.6722,6.864,0.4936,-3.24
1.715,1.6734,7.0223,0.4948,-3.24
1.72,1.6746,7.1743,0.496,-3.24
1.725,1.6758,7.3192,0.4972,-3.24
1.73,1.6771,7.4583,0.4985,-3.24
1.735,1.6785,7.5936,0.4999,-3.24
1.74,1.6799,7.7281,0.5013,-3.24
1.745,1.6814,7.8639,0.5028,-3.24
1.75,1.6829,8.0035,0.5043,-3.24
1.755,1.6844,8.1487,0.5058,-3.24
1.76,1.6859,8.2991,0.5073,-3.24
1.765,1.6874,8.454,0.5088,-3.24
1.77,1.6888,8.6124,0.5102,-3.24
1.775,1.6903,8.7735,0.5117,-3.24
1.78,1.6919,8.9376,0.5133,-3.24
1.785,1.6935,9.1054,0.5149,-3.24
1.79,1.6951,9.2783,0.5165,-3.24
1.795,1.6968,9.4563,0.5182,-3.24
1.8,1.6985,9.6398,0.5199,-3.24
1.805,1.7002,9.8292,0.5216,-3.24
1.81,1.7019,10.0242,0.5233,-3.24
1.815,1.7035,10.2223,0.5248,-3.24
1.82,1.705,10.4219,0.5264,-3.24
1.825,1.7064,10.6209,0.5278,-3.24
1.83,1.7078,10.8165,0.5292,-3.24
1.835,1.7093,11.008,0.5307,-3.24
1.84,1.7108,11.1957,0.5322,-3.24
1.845,1.7123,11.3804,0.5337,-3.24
1.85,1.7139,11.5642,0.5353,-3.24
1.855,1.7156,11.7488,0.537,-3.24
1.86,1.7173,11.9365,0.5387,-3.24
1.865,1.719,12.1291,0.5404,-3.24
1.87,1.7206,12.3263,0.542,-3.24
1.875,1.7221,12.527,0.5435,-3.24
1.88,1.7235,12.7282,0.5449,-3.24
1.885,1.7248,12.9265,0.5462,-3.24
1.89,1.726,13.1183,0.5474,-3.24
1.895,1.7272,13.3017,0.5486,-3.24
1.9,1.7285,13.4759,0.5499,-3.24
1.905,1.7298,13.6427,0.5512,-3.24
1.91,1.7311,13.8043,0.5525,-3.24
1.915,1.7326,13.9637,0.554,-3.24
1.92,1.7341,14.1246,0.5555,-3.24
1.925,1.7356,14.2898,0.557,-3.24
1.93,1.7371,14.4609,0.5585,-3.24
1.935,1.7385,14.6373,0.5599,-3.24
1.94,1.74,14.8192,0.5614,-3.24
1.945,1.7414,15.0048,0.5628,-3.24
1.95,1.7429,15.1943,0.5643,-3.24
1.955,1.7445,15.388,0.5659,-3.24
1.96,1.7461,15.5861,0.5675,-3.24
1.965,1.7477,15.79,0.5691,-3.24
1.97,1.7494,16.0007,0.5708,-3.24
1.975,1.7511,16.2196,0.5725,-3.24
1.98,1.7529,16.4464,0.5742,-3.24
1.985,1.7545,16.6806,0.5759,-3.24
1.99,1.7562,16.9208,0.5776,-3.24
1.995,1.7577,17.1653,0.5791,-3.24
2.0,1.7592,17.4109,0.5806,-3.24
2.005,1.7607,17.6544,0.5821,-3.24
2.01,1.7622,17.8936,0.5836,-3.24
2.015,1.7638,18.1283,0.5852,-3.24
2.02,1.7653,18.3598,0.5867,-3.24
2.025,1.7669,18.5893,0.5883,-3.24
2.03,1.7685,18.819,0.5899,-3.24
2.035,1.7701,19.0499,0.5915,-3.24
2.04,1.7717,19.283,0.5931,-3.24
2.045,1.7733,19.5184,0.5947,-3.24
2.05,1.7747,19.7545,0.5961,-3.24
2.055,1.776,19.9891,0.5974,-3.24
2.06,1.7773,20.2191,0.5987,-3.24
2.065,1.7785,20.441,0.5999,-3.2401
2.07,1.7797,20.6535,0.6011,-3.2401
2.075,1.781,20.8572,0.6024,-3.2401
2.08,1.7824,21.0543,0.6037,-3.2401
2.085,1.7837,21.2478,0.6051,-3.2401
2.09,1.7852,21.4411,0.6066,-3.2402
2.095,1.7867,21.6358,0.6081,-3.2402
2.1,1.7882,21.8357,0.6096,-3.2402
2.105,1.7897,22.0417,0.6111,-3.2402
2.11,1.7912,22.2542,0.6126,-3.2401
2.115,1.7927,22.4729,0.6141,-3.2401
2.12,1.7943,22.698,0.6157,-3.2401
2.125,1.7959,22.9299,0.6173,-3.2401
2.13,1.7976,23.1698,0.619,-3.2401
2.135,1.7993,23.4183,0.6207,-3.2401
2.14,1.8011,23.6752,0.6225,-3.2401
2.145,1.8029,23.9404,0.6242,-3.2401
2.15,1.8046,24.2134,0.626,-3.2401
2.155,1.8064,24.4934,0.6278,-3.2401
2.16,1.808,24.7782,0.6294,-3.2401
2.165,1.8096,25.0637,0.631,-3.2401
2.17,1.811,25.3455,0.6324,-3.2401
2.175,1.8125,25.6197,0.6338,-3.2401
2.18,1.8139,25.8848,0.6353,-3.24
2.185,1.8154,26.1406,0.6367,-3.24
2.19,1.8169,26.3891,0.6383,-3.24
2.195,1.8184,26.6326,0.6398,-3.24
2.2,1.82,26.875,0.6414,-3.24
2.205,1.8216,27.118,0.643,-3.24
2.21,1.8232,27.3638,0.6446,-3.24
2.215,1.8247,27.6125,0.6461,-3.24
2.22,1.8261,27.8614,0.6475,-3.24
2.225,1.8274,28.1073,0.6488,-3.2399
2.23,1.8286,28.3466,0.65,-3.2399
2.235,1.8298,28.5764,0.6512,-3.2399
2.24,1.831,28.795,0.6524,-3.2399
2.245,1.8322,29.0024,0.6535,-3.2399
2.25,1.8334,29.2004,0.6548,-3.2399
2.255,1.8347,29.3922,0.6561,-3.2399
2.26,1.8361,29.5823,0.6575,-3.2399
2.265,1.8375,29.7747,0.6589,-3.24
2.27,1.839,29.9722,0.6603,-3.24
2.275,1.8404,30.1749,0.6618,-3.24
2.28,1.8418,30.3831,0.6632,-3.24
2.285,1.8432,30.5964,0.6646,-3.24
2.29,1.8446,30.8148,0.666,-3.2401
2.295,1.8461,31.0374,0.6675,-3.2401
2.3,1.8475,31.2635,0.6689,-3.2401
2.305,1.849,31.4927,0.6704,-3.2401
2.31,1.8506,31.7258,0.672,-3.2401
2.315,1.8522,31.9638,0.6736,-3.2401
2.32,1.8538,32.2082,0.6752,-3.2401
2.325,1.8555,32.4599,0.6769,-3.2401
2.33,1.8572,32.7197,0.6786,-3.24
2.335,1.8588,32.9866,0.6802,-3.24
2.34,1.8604,33.2588,0.6818,-3.24
2.345,1.8619,33.5329,0.6833,-3.2399
2.35,1.8634,33.8052,0.6848,-3.2399
2.355,1.8649,34.0728,0.6862,-3.2399
2.36,1.8663,34.3332,0.6877,-3.2399
2.365,1.8679,34.5864,0.6892,-3.2398
2.37,1.8695,34.8346,0.6909,-3.2398
2.375,1.8712,35.0809,0.6926,-3.2398
2.38,1.8729,35.3298,0.6943,-3.2398
2.385,1.8746,35.5857,0.696,-3.2398
2.39,1.8763,35.8497,0.6977,-3.2399
2.395,1.8779,36.1208,0.6993,-3.2398
2.4,1.8794,36.396,0.7007,-3.2399
2.405,1.8807,36.6688,0.702,-3.2398
2.41,1.8819,36.9334,0.7033,-3.2398
2.415,1.8831,37.1863,0.7045,-3.2398
2.42,1.8844,37.427,0.7058,-3.2398
2.425,1.8857,37.6562,0.7071,-3.2398
2.43,1.887,37.8774,0.7084,-3.2398
2.435,1.8885,38.0943,0.7098,-3.2398
2.44,1.89,38.3109,0.7113,-3.2398
2.445,1.8915,38.5322,0.7129,-3.2399
2.45,1.893,38.7609,0.7143,-3.2399
2.455,1.8944,38.9966,0.7158,-3.2399
2.46,1.8958,39.2379,0.7172,-3.2399
2.465,1.8973,39.4838,0.7187,-3.2399
2.47,1.8989,39.7335,0.7203,-3.2399
2.475,1.9005,39.9883,0.7219,-3.2399
2.48,1.9022,40.25,0.7236,-3.2399
2.485,1.9039,40.5199,0.7253,-3.24
2.49,1.9057,40.7997,0.7271,-3.24
2.495,1.9075,41.0896,0.7289,-3.24
2.5,1.9093,41.3895,0.7307,-3.24
2.505,1.911,41.6977,0.7324,-3.24
2.51,1.9127,42.0114,0.734,-3.24
2.515,1.9142,42.3266,0.7356,-3.24
2.52,1.9157,42.639,0.7371,-3.24
2.525,1.9172,42.9449,0.7386,-3.24
2.53,1.9187,43.2432,0.7401,-3.24
2.535,1.9202,43.5333,0.7416,-3.24
2.54,1.9218,43.8182,0.7432,-3.24
2.545,1.9234,44.1001,0.7448,-3.24
2.55,1.9251,44.3821,0.7464,-3.2399
2.555,1.9267,44.6669,0.7481,-3.2399
2.56,1.9283,44.9544,0.7497,-3.2399
2.565,1.9298,45.2431,0.7512,-3.2399
2.57,1.9311,45.53,0.7525,-3.2399
2.575,1.9324,45.8107,0.7538,-3.2399
2.58,1.9336,46.0811,0.755,-3.2398
2.585,1.9348,46.3375,0.7562,-3.2398
2.59,1.936,46.5785,0.7574,-3.2398
2.595,1.9372,46.8051,0.7586,-3.2398
2.6,1.9385,47.0205,0.7599,-3.2398
2.605,1.9398,47.2303,0.7612,-3.2399
2.61,1.9413,47.4402,0.7626,-3.2399
2.615,1.9427,47.6538,0.7641,-3.2399
2.62,1.9441,47.8726,0.7655,-3.2399
2.625,1.9455,48.0983,0.7669,-3.2399
2.63,1.947,48.3319,0.7684,-3.24
2.635,1.9484,48.5737,0.7698,-3.24
2.64,1.9499,48.8224,0.7713,-3.24
2.645,1.9514,49.0776,0.7728,-3.24
2.65,1.9529,49.339,0.7743,-3.24
2.655,1.9545,49.6057,0.7759,-3.24
2.66,1.9561,49.8783,0.7775,-3.24
2.663,1.9571,50.0454,0.7785,-3.24
2.664,1.9575,50.1018,0.7788,-3.24
2.669,1.9591,50.3895,0.7805,-3.24
2.674,1.9604,50.6832,0.7818,-3.24
2.679,1.9611,50.9734,0.7825,-3.24
2.684,1.9611,51.2383,0.7825,-3.24
2.689,1.9611,51.4543,0.7824,-3.2399
2.694,1.9609,51.6097,0.7823,-3.2399
2.699,1.9608,51.7032,0.7822,-3.2399
2.704,1.9607,51.7397,0.7821,-3.2399
2.709,1.9606,51.7284,0.782,-3.2399
2.714,1.9604,51.6777,0.7818,-3.2399
2.719,1.9601,51.5954,0.7815,-3.2399
2.724,1.9599,51.4889,0.7813,-3.2399
2.729,1.9597,51.3649,0.7811,-3.2399
2.734,1.9593,51.2294,0.7807,-3.2399
2.739,1.9591,51.0852,0.7805,-3.2399
2.744,1.9588,50.9357,0.7801,-3.2399
2.749,1.9582,50.7825,0.7796,-3.2399
2.754,1.9574,50.6209,0.7788,-3.24
2.759,1.9566,50.4451,0.778,-3.24
2.764,1.9557,50.2514,0.7771,-3.24
2.769,1.9547,50.0374,0.7761,-3.24
2.774,1.9536,49.8004,0.775,-3.24
2.779,1.9522,49.5366,0.7736,-3.24
2.784,1.9506,49.2415,0.772,-3.2401
2.789,1.949,48.9098,0.7704,-3.2401
2.794,1.9474,48.5411,0.7688,-3.2401
2.799,1.946,48.1409,0.7674,-3.2401
2.804,1.9447,47.72,0.7661,-3.2401
2.809,1.9436,47.2902,0.765,-3.2401
2.814,1.9425,46.8635,0.7639,-3.2401
2.819,1.9414,46.4482,0.7628,-3.2401
2.824,1.9403,46.0473,0.7617,-3.2401
2.829,1.9391,45.6612,0.7605,-3.2401
2.834,1.9379,45.2886,0.7593,-3.2401
2.839,1.9366,44.9264,0.758,-3.24
2.844,1.9353,44.5725,0.7567,-3.24
2.849,1.934,44.2224,0.7554,-3.24
2.854,1.9326,43.8723,0.754,-3.2399
2.859,1.9312,43.5201,0.7526,-3.2399
2.864,1.9299,43.1655,0.7513,-3.2399
2.869,1.9287,42.8103,0.7501,-3.2399
2.874,1.9274,42.4563,0.7488,-3.2399
2.879,1.9261,42.1036,0.7475,-3.2399
2.884,1.9247,41.7529,0.7461,-3.2399
2.889,1.9233,41.4025,0.7446,-3.2399
2.894,1.9217,41.0497,0.7431,-3.2399
2.899,1.9202,40.6925,0.7416,-3.2399
2.904,1.9186,40.3288,0.74,-3.24
2.909,1.917,39.9564,0.7384,-3.24
2.914,1.9154,39.5746,0.7368,-3.24
2.919,1.9137,39.1848,0.7351,-3.24
2.924,1.9121,38.7882,0.7335,-3.24
2.929,1.9106,38.3874,0.732,-3.2401
2.934,1.909,37.9849,0.7304,-3.2401
2.939,1.9075,37.5842,0.7289,-3.2401
2.944,1.906,37.1874,0.7274,-3.2401
