Time,Displacement,Force,Compressive displacement,voltage_1
0.0,0.0246,0.0991,0.0,-0.0593
0.005,0.0246,0.0992,0.0,-0.0592
0.01,0.0246,0.0994,0.0,-0.0592
0.015,0.0246,0.0996,0.0,-0.0593
0.02,0.0246,0.0998,0.0,-0.0593
0.025,0.0246,0.0999,0.0,-0.0592
0.03,0.0246,0.0998,0.0,-0.0592
0.035,0.0246,0.0995,0.0,-0.0593
0.04,0.0246,0.0994,0.0,-0.0592
0.045,0.0246,0.0994,0.0,-0.0592
0.05,0.0247,0.0995,0.0001,-0.0593
0.055,0.0247,0.0998,0.0001,-0.0593
0.06,0.0248,0.1,0.0002,-0.0592
0.065,0.025,0.1002,0.0004,-0.0593
0.07,0.0253,0.1006,0.0007,-0.0593
0.075,0.0257,0.1009,0.0011,-0.0592
0.08,0.0263,0.1013,0.0017,-0.0592
0.085,0.0271,0.102,0.0025,-0.0593
0.09,0.0282,0.103,0.0036,-0.0592
0.095,0.0295,0.1042,0.0049,-0.0592
0.1,0.0309,0.1055,0.0063,-0.0593
0.105,0.0324,0.1066,0.0077,-0.0592
0.11,0.0338,0.1079,0.0092,-0.0592
0.115,0.0351,0.1092,0.0105,-0.0593
0.12,0.0364,0.1103,0.0118,-0.0593
0.125,0.0377,0.1114,0.0131,-0.0592
0.13,0.039,0.1126,0.0143,-0.0592
0.135,0.0403,0.1138,0.0157,-0.0593
0.14,0.0416,0.1154,0.017,-0.0592
0.145,0.043,0.1173,0.0184,-0.0592
0.15,0.0445,0.1192,0.0199,-0.0593
0.155,0.0459,0.1212,0.0213,-0.0592
0.16,0.0473,0.123,0.0227,-0.0592
0.165,0.0486,0.1244,0.024,-0.0592
0.17,0.0498,0.1257,0.0252,-0.0593
0.175,0.051,0.127,0.0263,-0.0592
0.18,0.052,0.1286,0.0274,-0.0592
0.185,0.0531,0.1304,0.0284,-0.0593
0.19,0.0541,0.1322,0.0294,-0.0592
0.195,0.0551,0.1338,0.0304,-0.0592
0.2,0.0561,0.1352,0.0314,-0.0593
0.205,0.0571,0.1366,0.0325,-0.0593
0.21,0.0582,0.1381,0.0336,-0.0592
0.215,0.0594,0.1397,0.0347,-0.0593
0.22,0.0606,0.1414,0.0359,-0.0593
0.225,0.0617,0.1431,0.0371,-0.0592
0.23,0.0629,0.1446,0.0383,-0.0592
0.235,0.064,0.146,0.0394,-0.0593
0.24,0.0652,0.1471,0.0405,-0.0592
0.245,0.0663,0.1482,0.0417,-0.0592
0.25,0.0674,0.1493,0.0428,-0.0593
0.255,0.0685,0.1504,0.0439,-0.0593
0.26,0.0697,0.1515,0.0451,-0.0592
0.265,0.0709,0.1526,0.0463,-0.0593
0.27,0.0722,0.1539,0.0476,-0.0593
0.275,0.0735,0.1555,0.0488,-0.0592
0.28,0.0748,0.1573,0.0502,-0.0592
0.285,0.0761,0.1588,0.0515,-0.0593
0.29,0.0775,0.16,0.0529,-0.0592
0.295,0.0789,0.1609,0.0542,-0.0592
0.3,0.0802,0.1617,0.0556,-0.0593
0.305,0.0816,0.1631,0.0569,-0.0592
0.31,0.0829,0.1651,0.0582,-0.0592
0.315,0.0841,0.1671,0.0595,-0.0592
0.32,0.0853,0.1688,0.0606,-0.0593
0.325,0.0864,0.1701,0.0618,-0.0592
0.33,0.0876,0.1709,0.0629,-0.0592
0.335,0.0887,0.1719,0.0641,-0.0593
0.34,0.0899,0.1733,0.0653,-0.0592
0.345,0.0912,0.175,0.0666,-0.0592
0.35,0.0925,0.1771,0.0678,-0.0593
0.355,0.0938,0.179,0.0692,-0.0592
0.36,0.0952,0.1804,0.0705,-0.0592
0.365,0.0966,0.1815,0.072,-0.0593
0.37,0.098,0.1824,0.0734,-0.0593
0.375,0.0994,0.1836,0.0748,-0.0592
0.38,0.1007,0.1851,0.0761,-0.0592
0.385,0.1019,0.1868,0.0773,-0.0593
0.39,0.1031,0.1881,0.0785,-0.0592
0.395,0.1042,0.1892,0.0796,-0.0592
0.4,0.1053,0.1898,0.0806,-0.0593
0.405,0.1063,0.1904,0.0817,-0.0593
0.41,0.1073,0.1914,0.0827,-0.0592
0.415,0.1084,0.1929,0.0837,-0.0592
0.42,0.1094,0.1948,0.0848,-0.0593
0.425,0.1106,0.1967,0.0859,-0.0592
0.43,0.1117,0.1984,0.0871,-0.0592
0.435,0.1129,0.1998,0.0883,-0.0593
0.44,0.1141,0.2009,0.0895,-0.0592
0.445,0.1154,0.202,0.0907,-0.0592
0.45,0.1166,0.2031,0.0919,-0.0593
0.455,0.1177,0.2045,0.0931,-0.0592
0.46,0.1189,0.206,0.0943,-0.0592
0.465,0.1201,0.2072,0.0955,-0.0592
0.47,0.1213,0.2081,0.0967,-0.0593
0.475,0.1226,0.2089,0.0979,-0.0592
0.48,0.1238,0.2098,0.0992,-0.0592
0.485,0.1252,0.211,0.1006,-0.0593
0.49,0.1266,0.2124,0.102,-0.0592
0.495,0.128,0.2137,0.1034,-0.0592
0.5,0.1294,0.215,0.1048,-0.0593
0.505,0.1309,0.2164,0.1063,-0.0592
0.51,0.1323,0.2178,0.1077,-0.0592
0.515,0.1337,0.2194,0.1091,-0.0592
0.52,0.1351,0.2208,0.1104,-0.0593
0.525,0.1364,0.2222,0.1117,-0.0592
0.53,0.1376,0.2236,0.113,-0.0592
0.535,0.1388,0.2248,0.1142,-0.0593
0.54,0.14,0.2259,0.1154,-0.0592
0.545,0.1412,0.2271,0.1166,-0.0592
0.55,0.1425,0.2286,0.1178,-0.0593
0.555,0.1438,0.2303,0.1191,-0.0592
0.56,0.1451,0.2321,0.1205,-0.0592
0.565,0.1465,0.2338,0.1219,-0.0592
0.57,0.1479,0.2352,0.1233,-0.0593
0.575,0.1493,0.2365,0.1247,-0.0592
0.58,0.1508,0.2378,0.1261,-0.0592
0.585,0.1522,0.2389,0.1275,-0.0593
0.59,0.1534,0.2401,0.1288,-0.0592
0.595,0.1546,0.2413,0.13,-0.0592
0.6,0.1557,0.2425,0.1311,-0.0593
0.605,0.1568,0.2437,0.1321,-0.0592
0.61,0.1578,0.245,0.1332,-0.0592
0.615,0.1589,0.2462,0.1342,-0.0592
0.62,0.1599,0.2475,0.1352,-0.0593
0.625,0.1609,0.2488,0.1363,-0.0592
0.63,0.162,0.2499,0.1374,-0.0592
0.635,0.1631,0.251,0.1385,-0.0593
0.64,0.1643,0.2519,0.1397,-0.0592
0.645,0.1656,0.2529,0.141,-0.0592
0.65,0.1668,0.2542,0.1422,-0.0593
0.655,0.1681,0.2556,0.1435,-0.0592
0.66,0.1693,0.257,0.1447,-0.0592
0.665,0.1705,0.2583,0.1459,-0.0592
0.67,0.1717,0.2593,0.1471,-0.0593
0.675,0.1729,0.26,0.1483,-0.0592
0.68,0.1742,0.261,0.1496,-0.0592
0.685,0.1755,0.2622,0.1509,-0.0593
0.69,0.1769,0.2636,0.1522,-0.0592
0.695,0.1783,0.2653,0.1537,-0.0592
0.7,0.1797,0.2669,0.1551,-0.0592
0.705,0.1812,0.2682,0.1566,-0.0592
0.71,0.1826,0.2697,0.158,-0.0591
0.715,0.1841,0.2711,0.1595,-0.0592
0.72,0.1855,0.2724,0.1609,-0.0593
0.725,0.1869,0.2739,0.1623,-0.0592
0.73,0.1883,0.2754,0.1636,-0.0592
0.735,0.1895,0.2767,0.1649,-0.0593
0.74,0.1907,0.2777,0.1661,-0.0592
0.745,0.1919,0.2785,0.1673,-0.0592
0.75,0.1931,0.2794,0.1685,-0.0593
0.755,0.1944,0.2807,0.1698,-0.0592
0.76,0.1957,0.2822,0.171,-0.0592
0.765,0.197,0.2839,0.1723,-0.0592
0.77,0.1983,0.2858,0.1737,-0.0593
0.775,0.1998,0.2874,0.1751,-0.0592
0.78,0.2012,0.2887,0.1766,-0.0592
0.785,0.2026,0.2899,0.178,-0.0593
0.79,0.204,0.2911,0.1794,-0.0592
0.795,0.2054,0.2926,0.1808,-0.0592
0.8,0.2066,0.2941,0.182,-0.0593
0.805,0.2078,0.2955,0.1832,-0.0592
0.81,0.2089,0.2967,0.1843,-0.0592
0.815,0.2099,0.2977,0.1853,-0.0592
0.82,0.2109,0.2985,0.1863,-0.0593
0.825,0.212,0.2993,0.1874,-0.0592
0.83,0.213,0.3005,0.1884,-0.0592
0.835,0.2141,0.3018,0.1895,-0.0593
0.84,0.2153,0.3033,0.1907,-0.0592
0.845,0.2165,0.3047,0.1919,-0.0592
0.85,0.2177,0.3058,0.1931,-0.0592
0.855,0.219,0.3067,0.1943,-0.0592
0.86,0.2202,0.3077,0.1955,-0.0591
0.865,0.2213,0.3086,0.1967,-0.0592
0.87,0.2225,0.3097,0.1979,-0.0593
0.875,0.2238,0.311,0.1991,-0.0592
0.88,0.225,0.3124,0.2004,-0.0592
0.885,0.2263,0.3137,0.2016,-0.0593
0.89,0.2276,0.3148,0.2029,-0.0592
0.895,0.2289,0.3157,0.2043,-0.0592
0.9,0.2303,0.3166,0.2056,-0.0593
0.905,0.2317,0.3176,0.207,-0.0592
0.91,0.2331,0.3188,0.2085,-0.0592
0.915,0.2345,0.3203,0.2099,-0.0592
0.92,0.236,0.3219,0.2114,-0.0593
0.925,0.2374,0.3235,0.2128,-0.0592
0.93,0.2388,0.325,0.2142,-0.0592
0.935,0.2402,0.3264,0.2155,-0.0593
0.94,0.2414,0.3275,0.2168,-0.0592
0.945,0.2426,0.3287,0.218,-0.0592
0.95,0.2439,0.3301,0.2193,-0.0593
0.955,0.2451,0.3315,0.2205,-0.0592
0.96,0.2464,0.333,0.2217,-0.0592
0.965,0.2477,0.3344,0.223,-0.0592
0.97,0.249,0.3357,0.2243,-0.0593
0.975,0.2503,0.3369,0.2257,-0.0592
0.98,0.2517,0.3383,0.227,-0.0592
0.985,0.2531,0.3398,0.2284,-0.0593
0.99,0.2544,0.3412,0.2298,-0.0592
0.995,0.2558,0.3425,0.2311,-0.0592
1.0,0.257,0.3435,0.2324,-0.0592
1.005,0.2581,0.3444,0.2335,-0.0592
1.01,0.2592,0.3453,0.2346,-0.0591
1.015,0.2603,0.3465,0.2357,-0.0592
1.02,0.2613,0.3476,0.2367,-0.0592
1.025,0.2623,0.3487,0.2376,-0.0592
1.03,0.2632,0.3498,0.2386,-0.0592
1.035,0.2642,0.3508,0.2396,-0.0593
1.04,0.2653,0.3518,0.2407,-0.0592
1.045,0.2664,0.3526,0.2418,-0.0591
1.05,0.2675,0.3535,0.2429,-0.0592
1.055,0.2686,0.3544,0.244,-0.0592
1.06,0.2698,0.3555,0.2452,-0.0591
1.065,0.271,0.3566,0.2464,-0.0592
1.07,0.2722,0.3577,0.2476,-0.0592
1.075,0.2734,0.3587,0.2488,-0.0591
1.08,0.2746,0.3598,0.2499,-0.0592
1.085,0.2757,0.3611,0.2511,-0.0592
1.09,0.2769,0.3623,0.2523,-0.0592
1.095,0.2781,0.3634,0.2535,-0.0591
1.1,0.2794,0.3645,0.2547,-0.0592
1.105,0.2807,0.3655,0.256,-0.0592
1.11,0.282,0.3668,0.2574,-0.0592
1.115,0.2834,0.3682,0.2587,-0.0592
1.12,0.2848,0.3697,0.2601,-0.0593
1.125,0.2862,0.3712,0.2616,-0.0592
1.13,0.2876,0.3727,0.263,-0.0592
1.135,0.289,0.374,0.2644,-0.0593
1.14,0.2903,0.3751,0.2657,-0.0592
1.145,0.2916,0.3761,0.267,-0.0592
1.15,0.2929,0.3771,0.2682,-0.0593
1.155,0.2941,0.3783,0.2694,-0.0592
1.16,0.2952,0.3798,0.2706,-0.0592
1.165,0.2964,0.3812,0.2718,-0.0592
1.17,0.2976,0.3826,0.273,-0.0593
1.175,0.2988,0.3839,0.2742,-0.0592
1.18,0.3001,0.3851,0.2754,-0.0592
1.185,0.3014,0.3864,0.2768,-0.0593
1.19,0.3028,0.3876,0.2781,-0.0592
1.195,0.3042,0.3888,0.2795,-0.0592
1.2,0.3056,0.3901,0.281,-0.0592
1.205,0.307,0.3914,0.2824,-0.0592
1.21,0.3084,0.3926,0.2838,-0.0591
1.215,0.3097,0.3938,0.2851,-0.0592
1.22,0.3109,0.3948,0.2863,-0.0592
1.225,0.3121,0.3957,0.2875,-0.0592
1.23,0.3132,0.3965,0.2886,-0.0592
1.235,0.3143,0.3974,0.2897,-0.0593
1.24,0.3153,0.3984,0.2907,-0.0592
1.245,0.3164,0.3997,0.2917,-0.0591
1.25,0.3175,0.4013,0.2928,-0.0592
1.255,0.3186,0.4027,0.294,-0.0592
1.26,0.3198,0.4041,0.2951,-0.0591
1.265,0.321,0.4053,0.2964,-0.0592
1.27,0.3222,0.4063,0.2976,-0.0592
1.275,0.3235,0.4073,0.2989,-0.0592
1.28,0.3248,0.4084,0.3001,-0.0592
1.285,0.326,0.4095,0.3014,-0.0593
1.29,0.3272,0.4108,0.3026,-0.0592
1.295,0.3285,0.4119,0.3038,-0.0592
1.3,0.3297,0.4129,0.3051,-0.0593
1.305,0.331,0.4139,0.3064,-0.0592
1.31,0.3324,0.4152,0.3078,-0.0592
1.315,0.3338,0.4165,0.3092,-0.0592
1.32,0.3353,0.4178,0.3106,-0.0593
1.325,0.3367,0.4191,0.3121,-0.0592
1.33,0.3382,0.4204,0.3136,-0.0592
1.335,0.3397,0.4216,0.3151,-0.0593
1.34,0.3412,0.4227,0.3165,-0.0592
1.345,0.3426,0.4239,0.318,-0.0592
1.35,0.344,0.4253,0.3194,-0.0592
1.355,0.3453,0.4267,0.3206,-0.0592
1.36,0.3465,0.428,0.3219,-0.0591
1.365,0.3477,0.4295,0.3231,-0.0592
1.37,0.349,0.4309,0.3243,-0.0593
1.375,0.3502,0.4323,0.3256,-0.0592
1.38,0.3515,0.4337,0.3268,-0.0592
1.385,0.3528,0.4354,0.3281,-0.0593
1.39,0.3541,0.4369,0.3295,-0.0592
1.395,0.3555,0.4383,0.3308,-0.0591
1.4,0.3569,0.4396,0.3323,-0.0592
1.405,0.3583,0.4407,0.3337,-0.0592
1.41,0.3597,0.4418,0.3351,-0.0591
1.415,0.361,0.4429,0.3364,-0.0592
1.42,0.3623,0.4439,0.3376,-0.0592
1.425,0.3634,0.4449,0.3388,-0.0592
1.43,0.3645,0.446,0.3398,-0.0592
1.435,0.3655,0.4469,0.3409,-0.0593
1.44,0.3665,0.4478,0.3418,-0.0592
1.445,0.3675,0.4488,0.3428,-0.0591
1.45,0.3684,0.4499,0.3438,-0.0592
1.455,0.3695,0.4513,0.3448,-0.0592
1.46,0.3706,0.4526,0.3459,-0.0592
1.465,0.3717,0.4537,0.3471,-0.0592
1.47,0.3729,0.4547,0.3483,-0.0593
1.475,0.3741,0.4556,0.3495,-0.0592
1.48,0.3753,0.4566,0.3507,-0.0592
1.485,0.3765,0.4579,0.3519,-0.0593
1.49,0.3777,0.4593,0.3531,-0.0592
1.495,0.3789,0.4605,0.3543,-0.0592
1.5,0.3801,0.4618,0.3554,-0.0593
1.505,0.3812,0.4628,0.3566,-0.0592
1.51,0.3824,0.4639,0.3578,-0.0592
1.515,0.3837,0.4651,0.359,-0.0592
1.52,0.385,0.4665,0.3603,-0.0593
1.525,0.3863,0.4681,0.3616,-0.0592
1.53,0.3876,0.4699,0.363,-0.0592
1.535,0.389,0.4718,0.3644,-0.0593
1.54,0.3904,0.4734,0.3657,-0.0592
1.545,0.3917,0.4749,0.3671,-0.0591
1.55,0.3931,0.4764,0.3685,-0.0592
1.555,0.3944,0.4777,0.3698,-0.0592
1.56,0.3957,0.4791,0.3711,-0.0591
1.565,0.3969,0.4806,0.3723,-0.0592
1.57,0.3981,0.4821,0.3735,-0.0592
1.575,0.3993,0.4837,0.3747,-0.0592
1.58,0.4005,0.4853,0.3759,-0.0592
1.585,0.4017,0.4869,0.3771,-0.0592
1.59,0.4029,0.4886,0.3783,-0.0592
1.595,0.4042,0.4901,0.3795,-0.0591
1.6,0.4055,0.4916,0.3809,-0.0592
1.605,0.4069,0.4932,0.3823,-0.0592
1.61,0.4083,0.4948,0.3837,-0.0591
1.615,0.4098,0.4966,0.3852,-0.0592
1.62,0.4112,0.4984,0.3866,-0.0592
1.625,0.4126,0.5001,0.388,-0.0592
1.63,0.4139,0.5016,0.3892,-0.0592
1.635,0.415,0.5029,0.3904,-0.0593
1.64,0.4161,0.504,0.3915,-0.0592
1.645,0.4172,0.5051,0.3925,-0.0592
1.65,0.4182,0.5064,0.3935,-0.0592
1.655,0.4192,0.5078,0.3945,-0.0592
1.66,0.4201,0.5093,0.3955,-0.0592
1.665,0.4212,0.5109,0.3966,-0.0592
1.67,0.4223,0.5124,0.3977,-0.0593
1.675,0.4234,0.5136,0.3988,-0.0592
1.68,0.4246,0.5149,0.4,-0.0592
1.685,0.4259,0.5164,0.4012,-0.0593
1.69,0.4271,0.5181,0.4025,-0.0592
1.695,0.4284,0.5197,0.4038,-0.0592
1.7,0.4296,0.521,0.405,-0.0592
1.705,0.4308,0.5222,0.4062,-0.0592
1.71,0.432,0.5235,0.4074,-0.0591
1.715,0.4332,0.5248,0.4086,-0.0592
1.72,0.4344,0.5264,0.4098,-0.0593
1.725,0.4357,0.5281,0.4111,-0.0592
1.73,0.4371,0.5299,0.4125,-0.0592
1.735,0.4385,0.5316,0.4138,-0.0592
1.74,0.4399,0.5331,0.4152,-0.0592
1.745,0.4413,0.5345,0.4167,-0.0591
1.75,0.4428,0.536,0.4181,-0.0592
1.755,0.4442,0.5379,0.4196,-0.0592
1.76,0.4456,0.5399,0.421,-0.0591
1.765,0.447,0.5417,0.4224,-0.0592
1.77,0.4483,0.5433,0.4236,-0.0592
1.775,0.4495,0.5446,0.4249,-0.0591
1.78,0.4507,0.5458,0.4261,-0.0592
1.785,0.4519,0.5472,0.4273,-0.0592
1.79,0.4531,0.5489,0.4284,-0.0592
1.795,0.4543,0.5506,0.4297,-0.0591
1.8,0.4555,0.5523,0.4309,-0.0592
1.805,0.4569,0.5538,0.4322,-0.0592
1.81,0.4582,0.555,0.4336,-0.0591
1.815,0.4596,0.5565,0.435,-0.0592
1.82,0.461,0.5584,0.4364,-0.0593
1.825,0.4624,0.5603,0.4378,-0.0592
1.83,0.4638,0.5623,0.4391,-0.0592
1.835,0.4651,0.564,0.4405,-0.0593
1.84,0.4664,0.5654,0.4417,-0.0592
1.845,0.4675,0.5668,0.4429,-0.0592
1.85,0.4686,0.5682,0.4439,-0.0593
1.855,0.4696,0.5697,0.445,-0.0592
1.86,0.4706,0.5713,0.446,-0.0592
1.865,0.4716,0.5728,0.4469,-0.0592
1.87,0.4726,0.5741,0.448,-0.0593
1.875,0.4737,0.5751,0.4491,-0.0592
1.88,0.4748,0.5759,0.4501,-0.0592
1.885,0.4759,0.5769,0.4513,-0.0593
1.89,0.4771,0.5783,0.4525,-0.0592
1.895,0.4784,0.5799,0.4538,-0.0591
1.9,0.4797,0.5816,0.455,-0.0592
1.905,0.4809,0.5833,0.4563,-0.0592
1.91,0.4821,0.5846,0.4575,-0.0591
1.915,0.4834,0.5858,0.4588,-0.0592
1.92,0.4847,0.5872,0.46,-0.0592
1.925,0.4859,0.5888,0.4613,-0.0592
1.93,0.4872,0.5904,0.4626,-0.0592
1.935,0.4885,0.5922,0.4639,-0.0592
1.94,0.4899,0.5939,0.4653,-0.0592
1.945,0.4913,0.5956,0.4667,-0.0591
1.95,0.4928,0.5973,0.4682,-0.0634
1.955,0.4943,0.5991,0.4696,-0.206
1.96,0.4957,0.6007,0.4711,-0.5434
1.965,0.4972,0.6025,0.4726,-0.9776
1.97,0.4986,0.604,0.474,-1.4393
1.975,0.5,0.6056,0.4754,-1.882
1.98,0.5013,0.6072,0.4767,-2.2777
1.985,0.5026,0.6091,0.4779,-2.612
1.99,0.5038,0.6111,0.4792,-2.8803
1.995,0.505,0.6128,0.4804,-3.0851
2.0,0.5062,0.6144,0.4816,-3.2331
2.005,0.5074,0.6159,0.4828,-3.3328
2.01,0.5087,0.6174,0.4841,-3.3937
2.015,0.5101,0.619,0.4854,-3.425
2.02,0.5114,0.6207,0.4868,-3.4348
2.025,0.5128,0.6225,0.4882,-3.4298
2.03,0.5142,0.6243,0.4896,-3.416
2.035,0.5156,0.6259,0.491,-3.3977
2.04,0.517,0.6273,0.4923,-3.3776
2.045,0.5182,0.6286,0.4936,-3.3582
2.05,0.5194,0.63,0.4948,-3.3408
2.055,0.5205,0.6315,0.4959,-3.3259
2.06,0.5215,0.633,0.4969,-3.3139
2.065,0.5226,0.6346,0.4979,-3.3047
2.07,0.5236,0.636,0.499,-3.298
2.075,0.5246,0.6372,0.5,-3.2934
2.08,0.5257,0.6384,0.5011,-3.2905
2.085,0.5269,0.6399,0.5023,-3.2891
2.09,0.5281,0.6415,0.5035,-3.2885
2.095,0.5294,0.6433,0.5047,-3.2886
2.1,0.5307,0.6449,0.506,-3.2893
2.105,0.5319,0.6463,0.5073,-3.29
2.11,0.5332,0.6477,0.5086,-3.2908
2.115,0.5345,0.6493,0.5098,-3.2917
2.12,0.5357,0.6509,0.5111,-3.2926
2.125,0.5369,0.653,0.5123,-3.2932
2.13,0.5382,0.6555,0.5136,-3.2937
2.135,0.5395,0.6582,0.5149,-3.2942
2.14,0.5408,0.661,0.5162,-3.2945
2.145,0.5422,0.6638,0.5176,-3.2947
2.15,0.5437,0.6667,0.5191,-3.2949
2.155,0.5452,0.6698,0.5206,-3.295
2.16,0.5467,0.673,0.5221,-3.2949
2.165,0.5482,0.6763,0.5236,-3.2949
2.17,0.5496,0.6796,0.525,-3.2949
2.175,0.551,0.6828,0.5264,-3.2948
2.18,0.5524,0.6859,0.5278,-3.2948
2.185,0.5537,0.6889,0.529,-3.2948
2.19,0.5549,0.692,0.5302,-3.2947
2.195,0.556,0.6948,0.5314,-3.2946
2.2,0.5572,0.6976,0.5326,-3.2946
2.205,0.5583,0.7004,0.5337,-3.2946
2.21,0.5595,0.7029,0.5349,-3.2945
2.215,0.5608,0.7055,0.5361,-3.2945
2.22,0.562,0.7082,0.5374,-3.2945
2.225,0.5633,0.7109,0.5387,-3.2944
2.23,0.5646,0.7138,0.5399,-3.2944
2.235,0.5659,0.7169,0.5413,-3.2945
2.24,0.5672,0.7199,0.5426,-3.2945
2.245,0.5684,0.7227,0.5438,-3.2944
2.25,0.5696,0.7252,0.545,-3.2945
2.255,0.5707,0.7276,0.546,-3.2945
2.26,0.5717,0.7302,0.5471,-3.2945
2.265,0.5727,0.7328,0.548,-3.2945
2.27,0.5736,0.7351,0.549,-3.2946
2.275,0.5745,0.7374,0.5499,-3.2945
2.28,0.5755,0.7393,0.5509,-3.2945
2.285,0.5765,0.7411,0.5518,-3.2947
2.29,0.5775,0.743,0.5528,-3.2946
2.295,0.5785,0.7449,0.5539,-3.2946
2.3,0.5796,0.7469,0.555,-3.2947
2.305,0.5808,0.7492,0.5562,-3.2947
2.31,0.582,0.7516,0.5574,-3.2946
2.315,0.5832,0.7539,0.5586,-3.2946
2.32,0.5845,0.7563,0.5598,-3.2947
2.325,0.5857,0.7587,0.5611,-3.2946
2.33,0.5869,0.7612,0.5623,-3.2946
2.335,0.5881,0.7638,0.5635,-3.2947
2.34,0.5894,0.7665,0.5647,-3.2946
2.345,0.5907,0.7692,0.566,-3.2946
2.35,0.592,0.7721,0.5674,-3.2947
2.355,0.5934,0.775,0.5687,-3.2947
2.36,0.5947,0.778,0.5701,-3.2946
2.365,0.5961,0.7812,0.5715,-3.2946
2.37,0.5976,0.7843,0.5729,-3.2946
2.375,0.599,0.7873,0.5744,-3.2945
2.38,0.6004,0.7905,0.5758,-3.2945
2.385,0.6018,0.7937,0.5771,-3.2946
2.39,0.6031,0.7971,0.5785,-3.2945
2.395,0.6044,0.8004,0.5798,-3.2944
2.4,0.6057,0.8036,0.581,-3.2945
2.405,0.6068,0.8066,0.5822,-3.2945
2.41,0.608,0.8095,0.5834,-3.2944
2.415,0.6092,0.8121,0.5846,-3.2945
2.42,0.6104,0.8146,0.5857,-3.2946
2.425,0.6116,0.8173,0.587,-3.2945
2.43,0.6129,0.82,0.5882,-3.2945
2.435,0.6142,0.8227,0.5896,-3.2946
2.44,0.6155,0.8255,0.5909,-3.2945
2.445,0.617,0.8284,0.5923,-3.2945
2.45,0.6184,0.8312,0.5938,-3.2946
2.455,0.6198,0.8341,0.5952,-3.2946
2.46,0.6212,0.837,0.5966,-3.2945
2.465,0.6225,0.8401,0.5979,-3.2946
2.47,0.6238,0.8431,0.5991,-3.2946
2.475,0.6249,0.8459,0.6002,-3.2945
2.48,0.6259,0.8484,0.6013,-3.2945
2.485,0.6269,0.8508,0.6023,-3.2946
2.49,0.6279,0.8533,0.6033,-3.2946
2.495,0.629,0.8557,0.6044,-3.2946
2.5,0.6301,0.8581,0.6055,-3.2947
2.505,0.6313,0.8605,0.6067,-3.2947
2.51,0.6325,0.8628,0.6079,-3.2946
2.515,0.6338,0.8651,0.6091,-3.2946
2.52,0.635,0.8672,0.6104,-3.2947
2.525,0.6363,0.8694,0.6117,-3.2946
2.53,0.6376,0.8717,0.6129,-3.2946
2.535,0.6388,0.8741,0.6142,-3.2947
2.54,0.6401,0.8767,0.6155,-3.2947
2.545,0.6414,0.8794,0.6167,-3.2946
2.55,0.6426,0.8821,0.618,-3.2947
2.555,0.644,0.885,0.6193,-3.2946
2.56,0.6454,0.8881,0.6207,-3.2945
2.565,0.6468,0.8913,0.6222,-3.2946
2.57,0.6482,0.8945,0.6236,-3.2946
2.575,0.6496,0.8976,0.625,-3.2945
2.58,0.6511,0.9007,0.6264,-3.2945
2.585,0.6525,0.904,0.6279,-3.2946
2.59,0.654,0.9075,0.6293,-3.2945
2.595,0.6554,0.9109,0.6307,-3.2945
2.6,0.6567,0.9143,0.6321,-3.2945
2.605,0.658,0.9175,0.6334,-3.2945
2.61,0.6592,0.9204,0.6346,-3.2944
2.615,0.6604,0.9231,0.6358,-3.2945
2.62,0.6616,0.9259,0.637,-3.2946
2.625,0.6629,0.9288,0.6383,-3.2945
2.63,0.6641,0.9318,0.6395,-3.2945
2.635,0.6653,0.9351,0.6407,-3.2946
2.64,0.6666,0.9383,0.642,-3.2946
2.645,0.668,0.9414,0.6434,-3.2945
2.65,0.6694,0.9445,0.6448,-3.2946
2.655,0.6708,0.9475,0.6462,-3.2946
2.66,0.6722,0.9504,0.6475,-3.2946
2.665,0.6734,0.9533,0.6488,-3.2946
2.67,0.6746,0.9561,0.65,-3.2947
2.675,0.6757,0.9587,0.6511,-3.2946
2.68,0.6768,0.9613,0.6521,-3.2947
2.685,0.6778,0.9638,0.6531,-3.2948
2.69,0.6787,0.9663,0.6541,-3.2947
2.695,0.6797,0.9686,0.6551,-3.2947
2.7,0.6807,0.9707,0.6561,-3.2948
2.705,0.6817,0.9727,0.6571,-3.2948
2.71,0.6828,0.9748,0.6581,-3.2947
2.715,0.6839,0.9768,0.6593,-3.2947
2.72,0.685,0.979,0.6604,-3.2948
2.725,0.6862,0.9814,0.6616,-3.2947
2.73,0.6874,0.9837,0.6627,-3.2947
2.735,0.6885,0.9859,0.6639,-3.2948
2.74,0.6897,0.9882,0.665,-3.2947
2.745,0.6908,0.9903,0.6662,-3.2947
2.75,0.692,0.9927,0.6674,-3.2947
2.755,0.6932,0.9952,0.6686,-3.2947
2.76,0.6944,0.9978,0.6698,-3.2947
2.765,0.6957,1.0006,0.671,-3.2947
2.77,0.697,1.0034,0.6723,-3.2948
2.775,0.6983,1.0061,0.6737,-3.2947
2.78,0.6997,1.009,0.6751,-3.2947
2.785,0.7011,1.012,0.6765,-3.2948
2.79,0.7026,1.0152,0.678,-3.2947
2.795,0.7041,1.0185,0.6795,-3.2946
2.8,0.7056,1.0219,0.681,-3.2947
2.805,0.707,1.0253,0.6824,-3.2947
2.81,0.7084,1.0287,0.6838,-3.2946
2.815,0.7097,1.0321,0.6851,-3.2947
2.82,0.7109,1.0352,0.6863,-3.2948
2.825,0.7122,1.0384,0.6876,-3.2947
2.83,0.7134,1.0415,0.6888,-3.2947
2.835,0.7146,1.0445,0.69,-3.2948
2.84,0.7159,1.0475,0.6913,-3.2947
2.845,0.7172,1.0504,0.6926,-3.2947
2.85,0.7186,1.0531,0.6939,-3.2947
2.855,0.72,1.0559,0.6953,-3.2948
2.86,0.7214,1.0589,0.6967,-3.2947
2.865,0.7228,1.0618,0.6982,-3.2947
2.87,0.7242,1.0648,0.6995,-3.2948
2.875,0.7254,1.0678,0.7008,-3.2947
2.88,0.7266,1.0709,0.702,-3.2946
2.885,0.7277,1.0739,0.7031,-3.2947
2.89,0.7287,1.0768,0.7041,-3.2947
2.895,0.7298,1.0794,0.7051,-3.2946
2.9,0.7308,1.0817,0.7061,-3.2947
2.905,0.7318,1.084,0.7072,-3.2948
2.91,0.7328,1.0863,0.7082,-3.2947
2.915,0.7339,1.0887,0.7093,-3.2947
2.92,0.735,1.0911,0.7104,-3.2948
