Time,Displacement,Force,Compressive displacement,voltage_1
0.0,0.4726,0.095,0.0,-0.0001
0.005,0.4726,0.0947,0.0,-0.0001
0.01,0.4726,0.0942,0.0,-0.0001
0.015,0.4726,0.0938,0.0,-0.0001
0.02,0.4725,0.0939,0.0,-0.0001
0.025,0.4726,0.0943,0.0,-0.0001
0.03,0.4725,0.0948,0.0,-0.0001
0.035,0.4725,0.0954,0.0,-0.0001
0.04,0.4726,0.0953,0.0,-0.0001
0.045,0.4726,0.0958,0.0001,-0.0001
0.05,0.4728,0.0964,0.0002,-0.0001
0.055,0.473,0.0975,0.0005,-0.0001
0.06,0.4735,0.0989,0.0009,-0.0001
0.065,0.4741,0.1002,0.0015,-0.0001
0.07,0.4749,0.1014,0.0023,-0.0001
0.075,0.4759,0.1027,0.0033,-0.0001
0.08,0.4771,0.1043,0.0046,-0.0001
0.085,0.4785,0.1064,0.006,-0.0001
0.09,0.48,0.1084,0.0075,-0.0001
0.095,0.4817,0.1102,0.0091,-0.0001
0.1,0.4834,0.1117,0.0108,-0.0001
0.105,0.4851,0.1141,0.0125,-0.0001
0.11,0.4866,0.1171,0.0141,-0.0001
0.115,0.4881,0.1197,0.0156,-0.0001
0.12,0.4896,0.1225,0.017,-0.0001
0.125,0.491,0.1255,0.0185,-0.0001
0.13,0.4925,0.1293,0.0199,-0.0001
0.135,0.4941,0.1332,0.0215,-0.0001
0.14,0.4957,0.137,0.0232,-0.0001
0.145,0.4974,0.1418,0.0248,-0.0001
0.15,0.4991,0.147,0.0266,-0.0001
0.155,0.5009,0.1518,0.0283,-0.0001
0.16,0.5027,0.1558,0.0301,-0.0001
0.165,0.5045,0.1596,0.0319,-0.0001
0.17,0.5062,0.1627,0.0336,-0.0001
0.175,0.5078,0.1655,0.0352,-0.0001
0.18,0.5093,0.1682,0.0368,-0.0001
0.185,0.5108,0.1715,0.0382,-0.0001
0.19,0.5122,0.1749,0.0397,-0.0001
0.195,0.5137,0.1787,0.0411,-0.0001
0.2,0.5152,0.1829,0.0426,-0.0001
0.205,0.5167,0.187,0.0441,-0.0001
0.21,0.5183,0.1916,0.0457,-0.0001
0.215,0.5199,0.1959,0.0473,0.0
0.22,0.5215,0.1993,0.0489,0.0
0.225,0.523,0.2015,0.0504,0.0
0.23,0.5243,0.2036,0.0518,0.0
0.235,0.5256,0.2059,0.0531,0.0
0.24,0.5268,0.2083,0.0543,0.0
0.245,0.528,0.211,0.0554,0.0
0.25,0.5292,0.2133,0.0566,0.0
0.255,0.5304,0.2154,0.0578,0.0
0.26,0.5316,0.2172,0.059,0.0
0.265,0.5329,0.2191,0.0604,0.0
0.27,0.5343,0.2213,0.0617,0.0
0.275,0.5357,0.2239,0.0631,0.0
0.28,0.5371,0.227,0.0645,0.0
0.285,0.5385,0.2296,0.0659,0.0
0.29,0.5399,0.2317,0.0673,-0.0001
0.295,0.5412,0.2334,0.0687,-0.0001
0.3,0.5426,0.2354,0.07,-0.0001
0.305,0.5439,0.2384,0.0714,-0.0001
0.31,0.5453,0.2417,0.0728,-0.0001
0.315,0.5469,0.2453,0.0743,-0.0001
0.32,0.5484,0.2496,0.0759,-0.0001
0.325,0.5501,0.2541,0.0775,-0.0001
0.33,0.5517,0.2575,0.0791,0.0
0.335,0.5533,0.2601,0.0808,0.0
0.34,0.5549,0.2614,0.0824,0.0
0.345,0.5565,0.262,0.084,0.0
0.35,0.558,0.2624,0.0855,0.0
0.355,0.5595,0.2631,0.0869,0.0
0.36,0.5609,0.265,0.0883,0.0
0.365,0.5623,0.2678,0.0897,0.0
0.37,0.5637,0.2707,0.0911,0.0
0.375,0.5651,0.2739,0.0926,0.0
0.38,0.5667,0.2771,0.0941,0.0
0.385,0.5682,0.2805,0.0957,0.0
0.39,0.5699,0.2839,0.0973,0.0
0.395,0.5716,0.2874,0.099,0.0
0.4,0.5732,0.291,0.1007,0.0
0.405,0.5748,0.2942,0.1023,0.0
0.41,0.5763,0.297,0.1037,0.0
0.415,0.5777,0.2999,0.1051,0.0
0.42,0.579,0.3027,0.1064,0.0
0.425,0.5802,0.3054,0.1077,0.0
0.43,0.5815,0.3082,0.1089,0.0
0.435,0.5827,0.3114,0.1102,0.0
0.44,0.584,0.3139,0.1115,0.0
0.445,0.5854,0.3164,0.1129,0.0
0.45,0.5869,0.3189,0.1143,0.0
0.455,0.5884,0.3213,0.1158,0.0
0.46,0.5898,0.3239,0.1173,0.0
0.465,0.5913,0.3269,0.1187,0.0
0.47,0.5927,0.3298,0.1201,0.0
0.475,0.5941,0.3321,0.1215,0.0
0.48,0.5956,0.3349,0.123,0.0
0.485,0.5971,0.3375,0.1245,0.0
0.49,0.5986,0.3393,0.126,0.0
0.495,0.6002,0.3406,0.1276,0.0
0.5,0.6018,0.3417,0.1293,0.0
0.505,0.6035,0.3436,0.131,0.0
0.51,0.6052,0.3461,0.1327,0.0
0.515,0.607,0.3494,0.1344,0.0
0.52,0.6086,0.3533,0.1361,0.0
0.525,0.6102,0.3573,0.1377,0.0
0.53,0.6118,0.3611,0.1392,0.0
0.535,0.6133,0.3649,0.1407,0.0
0.54,0.6147,0.3684,0.1421,0.0
0.545,0.6162,0.3711,0.1436,0.0
0.55,0.6177,0.3735,0.1451,0.0
0.555,0.6192,0.3764,0.1467,0.0
0.56,0.6209,0.3789,0.1483,0.0
0.565,0.6226,0.3823,0.15,0.0
0.57,0.6243,0.3855,0.1517,0.0
0.575,0.626,0.3888,0.1534,0.0
0.58,0.6276,0.3916,0.155,0.0
0.585,0.6291,0.3938,0.1565,0.0
0.59,0.6304,0.395,0.1578,0.0
0.595,0.6316,0.3969,0.1591,0.0
0.6,0.6328,0.3988,0.1603,0.0
0.605,0.6341,0.4009,0.1615,0.0
0.61,0.6353,0.4025,0.1628,0.0
0.615,0.6367,0.4044,0.1641,0.0
0.62,0.638,0.407,0.1655,0.0
0.625,0.6395,0.4099,0.1669,0.0
0.63,0.641,0.4125,0.1684,0.0
0.635,0.6424,0.4141,0.1699,0.0
0.64,0.6439,0.416,0.1713,0.0
0.645,0.6453,0.4181,0.1727,0.0
0.65,0.6467,0.4206,0.1742,0.0
0.655,0.6482,0.4235,0.1756,0.0
0.66,0.6497,0.4259,0.1772,0.0
0.665,0.6514,0.4288,0.1788,0.0
0.67,0.653,0.4323,0.1805,0.0
0.675,0.6547,0.4362,0.1821,0.0
0.68,0.6563,0.4397,0.1838,0.0
0.685,0.6581,0.443,0.1855,0.0
0.69,0.6597,0.4462,0.1872,0.0
0.695,0.6613,0.4488,0.1888,0.0
0.7,0.6629,0.4506,0.1903,0.0
0.705,0.6644,0.4524,0.1919,0.0
0.71,0.6659,0.4538,0.1934,0.0
0.715,0.6674,0.4556,0.1948,0.0
0.72,0.6689,0.4583,0.1964,0.0
0.725,0.6705,0.462,0.1979,0.0
0.73,0.6721,0.4653,0.1995,0.0
0.735,0.6737,0.4683,0.2012,0.0
0.74,0.6755,0.4709,0.2029,0.0
0.745,0.6771,0.4732,0.2046,0.0
0.75,0.6788,0.4753,0.2062,0.0
0.755,0.6803,0.4778,0.2078,0.0
0.76,0.6818,0.4805,0.2092,0.0
0.765,0.6831,0.4835,0.2105,0.0
0.77,0.6843,0.4871,0.2118,0.0
0.775,0.6856,0.4903,0.213,0.0
0.78,0.6868,0.493,0.2143,0.0
0.785,0.6882,0.4951,0.2156,0.0
0.79,0.6896,0.4976,0.217,0.0
0.795,0.6911,0.4999,0.2185,0.0
0.8,0.6925,0.5021,0.2199,0.0
0.805,0.6939,0.5046,0.2214,0.0
0.81,0.6954,0.5066,0.2228,0.0
0.815,0.6969,0.508,0.2243,0.0
0.82,0.6983,0.5095,0.2258,0.0
0.825,0.6998,0.511,0.2272,0.0
0.83,0.7013,0.5133,0.2287,0.0
0.835,0.7028,0.5166,0.2303,0.0
0.84,0.7044,0.5197,0.2319,0.0
0.845,0.706,0.5229,0.2335,0.0
0.85,0.7077,0.5255,0.2352,0.0
0.855,0.7094,0.528,0.2368,0.0
0.86,0.7111,0.5303,0.2385,0.0
0.865,0.7128,0.5324,0.2402,0.0
0.87,0.7143,0.5352,0.2418,0.0
0.875,0.7159,0.538,0.2433,0.0
0.88,0.7174,0.5406,0.2448,0.0
0.885,0.7188,0.5433,0.2463,0.0
0.89,0.7203,0.5462,0.2478,0.0
0.895,0.7219,0.549,0.2493,0.0
0.9,0.7235,0.5517,0.2509,0.0
0.905,0.7252,0.5541,0.2526,0.0
0.91,0.7269,0.5573,0.2543,0.0
0.915,0.7286,0.5607,0.2561,0.0
0.92,0.7303,0.5638,0.2577,0.0
0.925,0.7318,0.5669,0.2592,0.0
0.93,0.7332,0.5707,0.2606,0.0
0.935,0.7345,0.5738,0.2619,0.0
0.94,0.7357,0.5759,0.2631,0.0
0.945,0.7368,0.5784,0.2643,0.0
0.95,0.738,0.5802,0.2654,-0.0001
0.955,0.7392,0.5818,0.2667,-0.0001
0.96,0.7405,0.5841,0.2679,-0.0001
0.965,0.7418,0.5875,0.2693,-0.0001
0.97,0.7433,0.5915,0.2707,-0.0001
0.975,0.7447,0.5957,0.2721,-0.0001
0.98,0.7461,0.5994,0.2735,-0.0001
0.985,0.7475,0.6026,0.2749,-0.0001
0.99,0.7489,0.6053,0.2763,0.0
0.995,0.7503,0.608,0.2777,0.0
1.0,0.7517,0.6109,0.2792,0.0
1.005,0.7532,0.613,0.2806,0.0
1.01,0.7547,0.615,0.2821,0.0
1.015,0.7563,0.6179,0.2837,0.0
1.02,0.7579,0.6211,0.2854,0.0
1.025,0.7596,0.6242,0.287,0.0
1.03,0.7613,0.6277,0.2887,-0.0017
1.035,0.763,0.6321,0.2904,-0.119
1.04,0.7646,0.6366,0.2921,-0.4402
1.045,0.7662,0.641,0.2936,-0.8678
1.05,0.7677,0.6449,0.2951,-1.3297
1.055,0.7692,0.6483,0.2966,-1.7769
1.06,0.7706,0.6514,0.2981,-2.1794
1.065,0.7721,0.654,0.2995,-2.5213
1.07,0.7736,0.6562,0.301,-2.7974
1.075,0.7751,0.6592,0.3026,-3.0094
1.08,0.7768,0.662,0.3042,-3.1636
1.085,0.7784,0.6652,0.3059,-3.2685
1.09,0.7801,0.6684,0.3076,-3.3335
1.095,0.7818,0.6719,0.3092,-3.3678
1.1,0.7834,0.6752,0.3109,-3.3797
1.105,0.7849,0.6775,0.3124,-3.3762
1.11,0.7863,0.6796,0.3138,-3.3632
1.115,0.7876,0.6824,0.315,-3.3451
1.12,0.7889,0.6857,0.3163,-3.3252
1.125,0.7901,0.6894,0.3176,-3.3057
1.13,0.7914,0.6928,0.3189,-3.288
1.135,0.7928,0.6964,0.3202,-3.2728
1.14,0.7942,0.7001,0.3217,-3.2605
1.145,0.7957,0.7036,0.3232,-3.2509
1.15,0.7972,0.7073,0.3247,-3.2439
1.155,0.7988,0.7109,0.3262,-3.2391
1.16,0.8004,0.7138,0.3278,-3.2361
1.165,0.8019,0.7163,0.3294,-3.2345
1.17,0.8035,0.7191,0.3309,-3.2339
1.175,0.805,0.7211,0.3325,-3.2339
1.18,0.8067,0.7232,0.3341,-3.2344
1.185,0.8083,0.7262,0.3358,-3.2352
1.19,0.8101,0.7303,0.3375,-3.2361
1.195,0.8118,0.7346,0.3392,-3.2369
1.2,0.8136,0.739,0.341,-3.2377
1.205,0.8153,0.7427,0.3428,-3.2384
1.21,0.817,0.7458,0.3445,-3.2389
1.215,0.8186,0.749,0.3461,-3.2393
1.22,0.8202,0.7517,0.3476,-3.2396
1.225,0.8217,0.7543,0.3491,-3.2399
1.23,0.8232,0.7575,0.3506,-3.24
1.235,0.8247,0.7615,0.3521,-3.2401
1.24,0.8261,0.7656,0.3536,-3.2401
1.245,0.8277,0.7703,0.3551,-3.2401
1.25,0.8293,0.7746,0.3568,-3.2401
1.255,0.831,0.7782,0.3584,-3.24
1.26,0.8327,0.7818,0.3601,-3.24
1.265,0.8343,0.785,0.3618,-3.2399
1.27,0.8359,0.7881,0.3633,-3.2399
1.275,0.8373,0.7912,0.3648,-3.2399
1.28,0.8387,0.7939,0.3661,-3.2398
1.285,0.8399,0.7963,0.3673,-3.2398
1.29,0.8411,0.7983,0.3685,-3.2398
1.295,0.8422,0.8008,0.3697,-3.2398
1.3,0.8435,0.8034,0.3709,-3.2399
1.305,0.8447,0.8058,0.3722,-3.2399
1.31,0.8461,0.8084,0.3735,-3.2399
1.315,0.8475,0.8111,0.375,-3.2399
1.32,0.8489,0.8139,0.3764,-3.2399
1.325,0.8503,0.8168,0.3778,-3.2399
1.33,0.8517,0.82,0.3791,-3.2399
1.335,0.853,0.8228,0.3804,-3.2399
1.34,0.8543,0.8262,0.3817,-3.2399
1.345,0.8557,0.8296,0.3831,-3.2399
1.35,0.8571,0.8332,0.3845,-3.2399
1.355,0.8586,0.8365,0.386,-3.2399
1.36,0.8601,0.8392,0.3876,-3.2399
1.365,0.8618,0.8417,0.3892,-3.2398
1.37,0.8634,0.8449,0.3909,-3.2398
1.375,0.8651,0.8482,0.3925,-3.2398
1.38,0.8668,0.851,0.3942,-3.2397
1.385,0.8685,0.8535,0.3959,-3.2397
1.39,0.8701,0.8561,0.3975,-3.2397
1.395,0.8716,0.8593,0.3991,-3.2397
1.4,0.8731,0.863,0.4005,-3.2397
1.405,0.8746,0.867,0.402,-3.2397
1.41,0.876,0.8708,0.4035,-3.2397
1.415,0.8775,0.8743,0.405,-3.2397
1.42,0.8791,0.8775,0.4066,-3.2397
1.425,0.8807,0.8802,0.4082,-3.2397
1.43,0.8824,0.8834,0.4098,-3.2398
1.435,0.8841,0.8866,0.4115,-3.2398
1.44,0.8858,0.89,0.4132,-3.2398
1.445,0.8874,0.8927,0.4148,-3.2398
1.45,0.8888,0.8953,0.4163,-3.2398
1.455,0.8902,0.898,0.4177,-3.2399
1.46,0.8915,0.9013,0.419,-3.2399
1.465,0.8927,0.9041,0.4202,-3.2399
1.47,0.8939,0.9063,0.4214,-3.2399
1.475,0.8952,0.9089,0.4226,-3.2399
1.48,0.8965,0.9114,0.4239,-3.2399
1.485,0.8979,0.9137,0.4253,-3.2399
1.49,0.8993,0.9164,0.4267,-3.2399
1.495,0.9008,0.9188,0.4282,-3.2399
1.5,0.9022,0.9217,0.4297,-3.2399
1.505,0.9037,0.9248,0.4311,-3.2399
1.51,0.9051,0.928,0.4326,-3.2399
1.515,0.9066,0.931,0.434,-3.2399
1.52,0.9081,0.934,0.4355,-3.2399
1.525,0.9096,0.937,0.437,-3.2399
1.53,0.9112,0.9412,0.4386,-3.2399
1.535,0.9128,0.9464,0.4402,-3.2399
1.54,0.9145,0.9514,0.4419,-3.2399
1.545,0.9162,0.9554,0.4437,-3.2399
1.55,0.918,0.9583,0.4454,-3.2398
1.555,0.9197,0.9601,0.4472,-3.2398
1.56,0.9214,0.962,0.4488,-3.2398
1.565,0.923,0.965,0.4504,-3.2398
1.57,0.9245,0.9681,0.4519,-3.2398
1.575,0.9259,0.9715,0.4534,-3.2398
1.58,0.9274,0.9749,0.4548,-3.2398
1.585,0.9288,0.9774,0.4562,-3.2398
1.59,0.9302,0.9809,0.4577,-3.2398
1.595,0.9318,0.9855,0.4592,-3.2398
1.6,0.9334,0.991,0.4608,-3.2398
1.605,0.935,0.9963,0.4624,-3.2398
1.61,0.9366,1.0013,0.4641,-3.2398
1.615,0.9383,1.0048,0.4657,-3.2397
1.62,0.9398,1.0077,0.4672,-3.2397
1.625,0.9413,1.0102,0.4687,-3.2397
1.63,0.9426,1.0125,0.47,-3.2397
1.635,0.9438,1.0148,0.4712,-3.2397
1.64,0.945,1.0172,0.4724,-3.2397
1.645,0.9462,1.0197,0.4736,-3.2397
1.65,0.9475,1.0223,0.4749,-3.2397
1.655,0.9488,1.0247,0.4762,-3.2397
1.66,0.9501,1.027,0.4775,-3.2398
1.665,0.9515,1.0295,0.479,-3.2398
1.67,0.953,1.0323,0.4804,-3.2398
1.675,0.9544,1.0351,0.4819,-3.2398
1.68,0.9559,1.0378,0.4833,-3.2398
1.685,0.9573,1.0402,0.4848,-3.2398
1.69,0.9588,1.0425,0.4863,-3.2399
1.695,0.9603,1.0451,0.4878,-3.2399
1.7,0.9619,1.0483,0.4893,-3.2399
1.705,0.9636,1.0517,0.491,-3.2399
1.71,0.9652,1.0553,0.4927,-3.24
1.715,0.9669,1.0595,0.4944,-3.2399
1.72,0.9687,1.0631,0.4961,-3.2399
1.725,0.9704,1.0672,0.4979,-3.2399
1.73,0.9722,1.0712,0.4996,-3.2399
1.735,0.9738,1.0749,0.5013,-3.2399
1.74,0.9754,1.078,0.5029,-3.2399
1.745,0.9769,1.0808,0.5044,-3.2399
1.75,0.9784,1.0831,0.5058,-3.2399
1.755,0.9799,1.0859,0.5073,-3.2399
1.76,0.9813,1.0891,0.5088,-3.2399
1.765,0.9828,1.0923,0.5103,-3.2398
1.77,0.9844,1.0961,0.5119,-3.2398
1.775,0.9861,1.1001,0.5135,-3.2398
1.78,0.9877,1.1042,0.5152,-3.2398
1.785,0.9894,1.1087,0.5168,-3.2398
1.79,0.991,1.1129,0.5184,-3.2398
1.795,0.9925,1.1157,0.52,-3.2398
1.8,0.994,1.1181,0.5214,-3.2399
1.805,0.9953,1.1212,0.5227,-3.2399
1.81,0.9965,1.1245,0.5239,-3.2399
1.815,0.9977,1.128,0.5252,-3.2399
1.82,0.999,1.1311,0.5264,-3.2399
1.825,1.0003,1.1336,0.5277,-3.2399
1.83,1.0017,1.1368,0.5291,-3.2399
1.835,1.0031,1.1402,0.5306,-3.2399
1.84,1.0046,1.1436,0.5321,-3.2399
1.845,1.0061,1.147,0.5335,-3.2399
1.85,1.0075,1.1501,0.535,-3.2399
1.855,1.009,1.1534,0.5365,-3.2399
1.86,1.0105,1.1576,0.538,-3.2399
1.865,1.012,1.1618,0.5395,-3.2399
1.87,1.0136,1.1652,0.541,-3.2399
1.875,1.0152,1.1681,0.5426,-3.2399
1.88,1.0168,1.1711,0.5442,-3.2399
1.885,1.0185,1.1738,0.5459,-3.2399
1.89,1.0202,1.1764,0.5476,-3.2399
1.895,1.0218,1.1797,0.5493,-3.2399
1.9,1.0235,1.1831,0.551,-3.2399
1.905,1.0252,1.1866,0.5526,-3.2398
1.91,1.0268,1.1909,0.5542,-3.2398
1.915,1.0283,1.1949,0.5557,-3.2398
1.92,1.0297,1.1979,0.5571,-3.2398
1.925,1.0311,1.2015,0.5585,-3.2398
1.93,1.0325,1.2055,0.5599,-3.2398
1.935,1.0339,1.2095,0.5614,-3.2398
1.94,1.0354,1.2137,0.5629,-3.2398
1.945,1.037,1.2181,0.5644,-3.2398
1.95,1.0385,1.2221,0.566,-3.2398
1.955,1.0402,1.226,0.5676,-3.2398
1.96,1.0418,1.2297,0.5692,-3.2398
1.965,1.0433,1.2328,0.5708,-3.2398
1.97,1.0448,1.2363,0.5722,-3.2398
1.975,1.0462,1.2393,0.5736,-3.2398
1.98,1.0474,1.2422,0.5749,-3.2398
1.985,1.0487,1.2449,0.5761,-3.2399
1.99,1.0499,1.2475,0.5773,-3.2399
1.995,1.0511,1.25,0.5786,-3.2399
2.0,1.0524,1.2526,0.5798,-3.2399
2.005,1.0537,1.2556,0.5812,-3.2399
2.01,1.0551,1.2585,0.5826,-3.24
2.015,1.0566,1.2617,0.584,-3.24
2.02,1.0581,1.2653,0.5855,-3.24
2.025,1.0595,1.2689,0.5869,-3.24
2.03,1.0609,1.2722,0.5883,-3.2399
2.035,1.0623,1.275,0.5898,-3.2399
2.04,1.0638,1.2777,0.5912,-3.2399
2.045,1.0653,1.2808,0.5927,-3.2399
2.05,1.0669,1.284,0.5943,-3.2399
2.055,1.0684,1.287,0.5959,-3.2399
2.06,1.0701,1.2907,0.5976,-3.2399
2.065,1.0718,1.2946,0.5993,-3.2399
2.07,1.0736,1.2986,0.601,-3.2399
2.075,1.0753,1.3023,0.6028,-3.2399
2.08,1.077,1.3058,0.6044,-3.2399
2.085,1.0786,1.31,0.606,-3.2399
2.09,1.0802,1.3145,0.6076,-3.2398
2.095,1.0816,1.319,0.6091,-3.2398
2.1,1.0831,1.3233,0.6105,-3.2398
2.105,1.0846,1.3276,0.612,-3.2398
2.11,1.0861,1.3313,0.6135,-3.2398
2.115,1.0877,1.334,0.6151,-3.2398
2.12,1.0893,1.3365,0.6167,-3.2398
2.125,1.091,1.339,0.6184,-3.2398
2.13,1.0927,1.3425,0.6201,-3.2397
2.135,1.0944,1.3465,0.6218,-3.2398
2.14,1.096,1.3508,0.6234,-3.2398
2.145,1.0974,1.3554,0.6249,-3.2398
2.15,1.0988,1.3598,0.6262,-3.2398
2.155,1.1001,1.3641,0.6275,-3.2398
2.16,1.1013,1.3681,0.6287,-3.2398
2.165,1.1025,1.3726,0.6299,-3.2398
2.17,1.1038,1.3771,0.6312,-3.2398
2.175,1.1051,1.3811,0.6325,-3.2398
2.18,1.1065,1.3845,0.6339,-3.2398
2.185,1.1079,1.3872,0.6353,-3.2398
2.19,1.1094,1.3898,0.6368,-3.2399
2.195,1.1108,1.3923,0.6383,-3.2399
2.2,1.1123,1.395,0.6398,-3.2399
2.205,1.1138,1.3975,0.6412,-3.2399
2.21,1.1153,1.4008,0.6427,-3.2399
2.215,1.1168,1.4044,0.6442,-3.2399
2.22,1.1183,1.4079,0.6458,-3.24
2.225,1.12,1.4115,0.6474,-3.24
2.23,1.1217,1.4151,0.6491,-3.24
2.235,1.1233,1.4187,0.6508,-3.24
2.24,1.1251,1.4227,0.6525,-3.2399
2.245,1.1269,1.4265,0.6543,-3.2399
2.25,1.1286,1.4302,0.656,-3.2399
2.255,1.1303,1.434,0.6577,-3.2399
2.26,1.1319,1.4382,0.6593,-3.2399
2.265,1.1334,1.4428,0.6608,-3.2399
2.27,1.1349,1.4466,0.6623,-3.2398
2.275,1.1364,1.45,0.6638,-3.2398
2.28,1.1379,1.4539,0.6653,-3.2398
2.285,1.1394,1.4577,0.6668,-3.2398
2.29,1.141,1.4617,0.6684,-3.2398
2.295,1.1427,1.4662,0.6701,-3.2398
2.3,1.1444,1.4708,0.6718,-3.2398
2.305,1.146,1.4752,0.6735,-3.2398
2.31,1.1476,1.4795,0.675,-3.2398
2.315,1.149,1.4833,0.6764,-3.2398
2.32,1.1503,1.4865,0.6777,-3.2398
2.325,1.1515,1.4895,0.679,-3.2398
2.33,1.1527,1.4926,0.6802,-3.2398
2.335,1.154,1.4963,0.6814,-3.2398
2.34,1.1552,1.5003,0.6826,-3.2398
2.345,1.1565,1.5041,0.6839,-3.2398
2.35,1.1579,1.5075,0.6853,-3.2398
2.355,1.1593,1.5106,0.6868,-3.2398
2.36,1.1608,1.5134,0.6883,-3.2398
2.365,1.1623,1.5161,0.6897,-3.2398
2.37,1.1638,1.5191,0.6912,-3.2398
2.375,1.1652,1.5219,0.6927,-3.2398
2.38,1.1667,1.5243,0.6942,-3.2398
2.385,1.1682,1.5265,0.6957,-3.2398
2.39,1.1698,1.5289,0.6972,-3.2398
2.395,1.1714,1.5313,0.6988,-3.2398
2.4,1.173,1.5348,0.7005,-3.2398
2.405,1.1747,1.5392,0.7021,-3.2398
2.41,1.1764,1.5436,0.7039,-3.2398
2.415,1.1781,1.5479,0.7056,-3.2398
2.42,1.1798,1.5516,0.7072,-3.2398
2.425,1.1814,1.5554,0.7089,-3.2398
2.43,1.183,1.5595,0.7104,-3.2398
2.435,1.1845,1.5639,0.7119,-3.2398
2.44,1.1859,1.5678,0.7133,-3.2399
2.445,1.1873,1.571,0.7147,-3.2399
2.45,1.1886,1.5736,0.7161,-3.2399
2.455,1.1901,1.5766,0.7175,-3.2399
2.46,1.1915,1.5798,0.719,-3.2399
2.465,1.1931,1.5839,0.7205,-3.2399
2.47,1.1947,1.5883,0.7221,-3.2399
2.475,1.1963,1.592,0.7237,-3.2399
2.48,1.1979,1.5948,0.7253,-3.2399
2.485,1.1995,1.5982,0.7269,-3.2399
2.49,1.201,1.6015,0.7284,-3.2399
2.495,1.2023,1.6048,0.7298,-3.2399
2.5,1.2036,1.6077,0.7311,-3.2399
2.505,1.2048,1.6103,0.7323,-3.2398
2.51,1.2061,1.6129,0.7335,-3.2398
2.515,1.2073,1.6155,0.7347,-3.2398
2.52,1.2086,1.6178,0.736,-3.2398
2.525,1.2099,1.6199,0.7374,-3.2398
2.53,1.2114,1.6229,0.7388,-3.2398
2.535,1.2128,1.6264,0.7403,-3.2398
2.54,1.2143,1.6297,0.7418,-3.2398
2.545,1.2158,1.6325,0.7432,-3.2398
2.55,1.2172,1.6349,0.7447,-3.2398
2.555,1.2187,1.6378,0.7461,-3.2398
2.56,1.2201,1.6415,0.7476,-3.2398
2.565,1.2216,1.6464,0.7491,-3.2398
2.57,1.2232,1.6523,0.7506,-3.2398
2.575,1.2248,1.6588,0.7522,-3.2398
2.58,1.2264,1.6646,0.7538,-3.2398
2.585,1.228,1.6688,0.7555,-3.2398
2.59,1.2297,1.672,0.7571,-3.2398
2.595,1.2314,1.6752,0.7588,-3.2398
2.6,1.233,1.6786,0.7604,-3.2398
2.605,1.2346,1.6817,0.762,-3.2399
2.61,1.2361,1.6848,0.7635,-3.2399
2.615,1.2375,1.6878,0.765,-3.2399
2.62,1.2389,1.6915,0.7664,-3.2399
2.625,1.2403,1.6957,0.7678,-3.2399
2.63,1.2418,1.6996,0.7692,-3.2399
2.635,1.2433,1.7034,0.7707,-3.2399
2.64,1.2449,1.7071,0.7723,-3.2399
2.645,1.2465,1.7107,0.7739,-3.2399
2.65,1.2481,1.7142,0.7756,-3.2399
2.655,1.2498,1.7177,0.7772,-3.2399
2.66,1.2513,1.7205,0.7788,-3.2399
2.665,1.2528,1.7237,0.7802,-3.2398
2.67,1.2542,1.7267,0.7816,-3.2398
2.675,1.2555,1.7295,0.7829,-3.2398
2.68,1.2567,1.7322,0.7841,-3.2398
2.685,1.2579,1.735,0.7853,-3.2398
2.69,1.2591,1.738,0.7865,-3.2397
2.695,1.2604,1.741,0.7879,-3.2397
2.7,1.2618,1.7445,0.7892,-3.2397
2.705,1.2632,1.7487,0.7906,-3.2397
2.71,1.2647,1.7527,0.7921,-3.2397
2.715,1.2662,1.7561,0.7936,-3.2397
2.72,1.2677,1.7594,0.7952,-3.2397
2.725,1.2692,1.7626,0.7967,-3.2397
2.73,1.2707,1.7655,0.7982,-3.2397
2.735,1.2723,1.7689,0.7997,-3.2398
2.74,1.2739,1.7728,0.8013,-3.2398
2.745,1.2755,1.7769,0.803,-3.2398
2.75,1.2773,1.7807,0.8047,-3.2398
2.755,1.279,1.7844,0.8065,-3.2398
2.76,1.2808,1.7874,0.8083,-3.2398
2.765,1.2826,1.7911,0.81,-3.2398
2.77,1.2843,1.7961,0.8118,-3.2398
2.775,1.286,1.8019,0.8135,-3.2398
2.78,1.2876,1.8069,0.8151,-3.2398
2.785,1.2892,1.8115,0.8166,-3.2398
2.79,1.2907,1.8156,0.8181,-3.2398
2.795,1.2921,1.8186,0.8196,-3.2398
2.8,1.2936,1.8217,0.8211,-3.2398
2.805,1.2952,1.8244,0.8226,-3.2398
2.81,1.2967,1.8272,0.8242,-3.2398
2.815,1.2984,1.8309,0.8258,-3.2398
2.82,1.3001,1.8356,0.8275,-3.2398
2.825,1.3018,1.8409,0.8293,-3.2398
2.83,1.3035,1.8462,0.8309,-3.2398
2.835,1.3051,1.8507,0.8325,-3.2397
2.84,1.3066,1.854,0.834,-3.2397
2.845,1.308,1.8571,0.8354,-3.2397
2.85,1.3092,1.8596,0.8367,-3.2397
2.855,1.3104,1.8617,0.8379,-3.2397
2.86,1.3117,1.8641,0.8391,-3.2397
2.865,1.313,1.8671,0.8404,-3.2397
2.87,1.3143,1.8705,0.8417,-3.2397
2.875,1.3156,1.8738,0.8431,-3.2397
2.88,1.317,1.8773,0.8445,-3.2397
2.885,1.3184,1.8807,0.8459,-3.2397
2.89,1.3198,1.8838,0.8473,-3.2397
2.895,1.3212,1.8877,0.8487,-3.2397
2.9,1.3226,1.8916,0.8501,-3.2398
2.905,1.324,1.8947,0.8515,-3.2398
2.91,1.3255,1.8975,0.8529,-3.2398
2.915,1.3269,1.9006,0.8543,-3.2398
2.92,1.3284,1.904,0.8559,-3.2399
2.925,1.33,1.9075,0.8575,-3.2399
2.93,1.3317,1.9114,0.8591,-3.2399
2.935,1.3333,1.9156,0.8608,-3.2399
2.94,1.335,1.9194,0.8624,-3.2399
2.945,1.3367,1.9237,0.8641,-3.2399
2.95,1.3384,1.928,0.8658,-3.2398
2.955,1.3399,1.9319,0.8674,-3.2398
2.96,1.3414,1.935,0.8689,-3.2398
2.965,1.3429,1.9374,0.8703,-3.2398
2.97,1.3443,1.9395,0.8718,-3.2398
2.975,1.3458,1.9433,0.8732,-3.2398
2.98,1.3473,1.948,0.8747,-3.2398
2.985,1.3489,1.9531,0.8763,-3.2398
2.99,1.3505,1.9585,0.8779,-3.2398
2.995,1.3521,1.9637,0.8795,-3.2398
3.0,1.3537,1.9682,0.8812,-3.2398
3.005,1.3553,1.9722,0.8828,-3.2398
