Time,Displacement,Force,Compressive displacement,voltage_1
0.0,0.8604,0.0973,0.0,0.0001
0.005,0.8604,0.0973,0.0,0.0001
0.01,0.8604,0.0973,0.0,0.0001
0.015,0.8604,0.0973,0.0,0.0001
0.02,0.8604,0.0976,0.0,0.0001
0.025,0.8604,0.0979,0.0,0.0001
0.03,0.8604,0.0979,0.0,0.0001
0.035,0.8604,0.0977,0.0,0.0001
0.04,0.8604,0.0974,0.0,0.0001
0.045,0.8605,0.0971,0.0001,0.0001
0.05,0.8605,0.097,0.0001,0.0001
0.055,0.8607,0.0972,0.0002,0.0001
0.06,0.861,0.0976,0.0005,0.0001
0.065,0.8614,0.0981,0.0009,0.0001
0.07,0.8619,0.0985,0.0015,0.0001
0.075,0.8627,0.0989,0.0023,0.0001
0.08,0.8637,0.0996,0.0033,0.0001
0.085,0.865,0.1004,0.0045,0.0001
0.09,0.8664,0.1013,0.006,0.0001
0.095,0.8681,0.1025,0.0077,0.0001
0.1,0.87,0.1037,0.0095,0.0001
0.105,0.8719,0.1046,0.0115,0.0001
0.11,0.8739,0.1053,0.0135,0.0001
0.115,0.8758,0.1058,0.0154,0.0001
0.12,0.8776,0.1063,0.0172,0.0001
0.125,0.8792,0.107,0.0187,0.0001
0.13,0.8806,0.1076,0.0202,0.0001
0.135,0.8819,0.1082,0.0215,0.0001
0.14,0.8831,0.1091,0.0227,0.0001
0.145,0.8844,0.1101,0.024,0.0001
0.15,0.8857,0.1112,0.0253,0.0001
0.155,0.8871,0.1127,0.0267,0.0001
0.16,0.8886,0.1142,0.0282,0.0001
0.165,0.8901,0.1156,0.0296,0.0001
0.17,0.8915,0.1167,0.0311,0.0001
0.175,0.8929,0.1176,0.0325,0.0001
0.18,0.8943,0.1184,0.0339,0.0001
0.185,0.8957,0.1194,0.0353,0.0001
0.19,0.8971,0.1203,0.0367,0.0001
0.195,0.8986,0.1214,0.0382,0.0001
0.2,0.9002,0.1227,0.0398,0.0001
0.205,0.9019,0.1238,0.0415,0.0001
0.21,0.9035,0.1245,0.0431,0.0001
0.215,0.9052,0.1251,0.0448,0.0001
0.22,0.9069,0.1259,0.0465,0.0001
0.225,0.9086,0.1269,0.0482,0.0001
0.23,0.9103,0.1281,0.0498,0.0001
0.235,0.9118,0.1293,0.0514,0.0001
0.24,0.9133,0.1303,0.0529,0.0001
0.245,0.9148,0.1311,0.0543,0.0001
0.25,0.9162,0.1318,0.0557,0.0001
0.255,0.9176,0.1324,0.0571,0.0001
0.26,0.919,0.1335,0.0586,0.0001
0.265,0.9205,0.1348,0.06,0.0001
0.27,0.922,0.1362,0.0616,0.0001
0.275,0.9236,0.1375,0.0632,0.0001
0.28,0.9252,0.1385,0.0648,0.0001
0.285,0.9268,0.1392,0.0663,0.0001
0.29,0.9283,0.1399,0.0678,0.0001
0.295,0.9297,0.1404,0.0693,0.0001
0.3,0.9311,0.1411,0.0706,0.0001
0.305,0.9323,0.1418,0.0719,0.0001
0.31,0.9335,0.1424,0.073,0.0001
0.315,0.9347,0.1428,0.0742,0.0001
0.32,0.9359,0.1434,0.0754,0.0001
0.325,0.9371,0.1443,0.0767,0.0001
0.33,0.9385,0.1454,0.078,0.0
0.335,0.9399,0.1467,0.0794,0.0
0.34,0.9413,0.1479,0.0809,0.0
0.345,0.9428,0.1491,0.0823,0.0001
0.35,0.9442,0.1501,0.0838,0.0001
0.355,0.9457,0.1508,0.0853,0.0001
0.36,0.9472,0.1516,0.0867,0.0001
0.365,0.9487,0.1524,0.0882,0.0001
0.37,0.9501,0.1532,0.0897,0.0001
0.375,0.9517,0.154,0.0912,0.0001
0.38,0.9533,0.1549,0.0929,0.0001
0.385,0.955,0.156,0.0945,0.0001
0.39,0.9567,0.1569,0.0963,0.0001
0.395,0.9584,0.1579,0.098,0.0001
0.4,0.9602,0.1587,0.0997,0.0001
0.405,0.9619,0.1596,0.1014,0.0001
0.41,0.9635,0.1606,0.1031,0.0001
0.415,0.9651,0.1613,0.1046,0.0001
0.42,0.9665,0.162,0.1061,0.0001
0.425,0.968,0.1627,0.1076,0.0001
0.43,0.9694,0.1636,0.109,0.0001
0.435,0.9709,0.1646,0.1105,0.0001
0.44,0.9725,0.1659,0.1121,0.0001
0.445,0.9741,0.1672,0.1137,0.0001
0.45,0.9757,0.1686,0.1153,0.0001
0.455,0.9774,0.17,0.117,0.0001
0.46,0.979,0.1712,0.1186,0.0001
0.465,0.9806,0.1723,0.1201,0.0001
0.47,0.9819,0.173,0.1215,0.0001
0.475,0.9832,0.1733,0.1228,0.0001
0.48,0.9844,0.1736,0.124,0.0001
0.485,0.9856,0.1742,0.1251,0.0
0.49,0.9867,0.1749,0.1263,0.0001
0.495,0.9879,0.1757,0.1274,0.0001
0.5,0.9891,0.1765,0.1287,0.0001
0.505,0.9904,0.1773,0.13,0.0001
0.51,0.9918,0.1782,0.1314,0.0001
0.515,0.9932,0.1793,0.1328,0.0001
0.52,0.9947,0.1804,0.1343,0.0
0.525,0.9961,0.1817,0.1357,0.0
0.53,0.9976,0.1831,0.1371,0.0
0.535,0.999,0.1843,0.1386,0.0
0.54,1.0004,0.1851,0.14,0.0
0.545,1.002,0.1861,0.1415,0.0
0.55,1.0035,0.1871,0.1431,0.0
0.555,1.0051,0.1882,0.1447,0.0
0.56,1.0068,0.1895,0.1464,0.0001
0.565,1.0085,0.1906,0.148,0.0001
0.57,1.0102,0.1914,0.1498,0.0001
0.575,1.0119,0.1918,0.1515,0.0001
0.58,1.0136,0.1918,0.1532,0.0001
0.585,1.0152,0.192,0.1548,0.0001
0.59,1.0167,0.1926,0.1563,0.0001
0.595,1.0182,0.1934,0.1577,0.0001
0.6,1.0196,0.1944,0.1592,0.0001
0.605,1.021,0.1955,0.1606,0.0001
0.61,1.0225,0.1966,0.162,0.0001
0.615,1.024,0.1977,0.1635,0.0001
0.62,1.0255,0.199,0.1651,0.0001
0.625,1.0272,0.2005,0.1667,0.0001
0.63,1.0289,0.2022,0.1684,0.0001
0.635,1.0305,0.2038,0.1701,0.0001
0.64,1.0322,0.2048,0.1717,0.0001
0.645,1.0337,0.2053,0.1732,0.0001
0.65,1.0351,0.2056,0.1746,0.0001
0.655,1.0363,0.206,0.1759,0.0001
0.66,1.0376,0.2069,0.1771,0.0001
0.665,1.0388,0.2083,0.1784,0.0001
0.67,1.04,0.21,0.1796,0.0001
0.675,1.0413,0.2117,0.1809,0.0001
0.68,1.0427,0.2134,0.1823,0.0001
0.685,1.0441,0.215,0.1837,0.0001
0.69,1.0457,0.217,0.1852,0.0001
0.695,1.0472,0.2191,0.1868,0.0
0.7,1.0488,0.2212,0.1884,0.0
0.705,1.0503,0.2237,0.1899,0.0
0.71,1.0518,0.226,0.1914,0.0
0.715,1.0534,0.2281,0.193,0.0
0.72,1.055,0.23,0.1946,0.0
0.725,1.0566,0.2322,0.1962,0.0
0.73,1.0583,0.2344,0.1979,0.0
0.735,1.06,0.2372,0.1996,0.0
0.74,1.0617,0.2397,0.2013,0.0
0.745,1.0634,0.2419,0.203,0.0
0.75,1.0651,0.2439,0.2047,0.0
0.755,1.0668,0.2458,0.2064,0.0
0.76,1.0684,0.2476,0.208,0.0
0.765,1.0699,0.2498,0.2095,0.0
0.77,1.0714,0.2521,0.211,0.0
0.775,1.0728,0.2545,0.2124,0.0
0.78,1.0743,0.2566,0.2139,0.0
0.785,1.0758,0.2586,0.2154,0.0
0.79,1.0774,0.2605,0.217,0.0
0.795,1.079,0.2628,0.2186,0.0
0.8,1.0807,0.265,0.2202,0.0
0.805,1.0823,0.2673,0.2219,0.0
0.81,1.084,0.2696,0.2235,0.0
0.815,1.0855,0.2719,0.2251,0.0
0.82,1.0869,0.2737,0.2265,0.0001
0.825,1.0883,0.2754,0.2278,0.0001
0.83,1.0895,0.2769,0.2291,0.0001
0.835,1.0907,0.2786,0.2303,0.0001
0.84,1.092,0.2803,0.2315,0.0001
0.845,1.0932,0.282,0.2328,0.0001
0.85,1.0946,0.2839,0.2342,0.0001
0.855,1.0961,0.2861,0.2356,0.0001
0.86,1.0975,0.2882,0.2371,0.0001
0.865,1.0989,0.2898,0.2385,0.0001
0.87,1.1004,0.2914,0.24,0.0001
0.875,1.1018,0.2932,0.2414,0.0001
0.88,1.1032,0.2948,0.2428,0.0001
0.885,1.1046,0.2966,0.2442,0.0001
0.89,1.1061,0.2986,0.2456,0.0001
0.895,1.1076,0.3006,0.2472,0.0001
0.9,1.1092,0.3024,0.2487,0.0001
0.905,1.1107,0.3041,0.2503,0.0001
0.91,1.1124,0.3059,0.252,0.0001
0.915,1.114,0.308,0.2536,0.0001
0.92,1.1157,0.3101,0.2553,0.0001
0.925,1.1173,0.312,0.2569,0.0001
0.93,1.1189,0.314,0.2584,0.0001
0.935,1.1203,0.316,0.2599,0.0001
0.94,1.1218,0.3178,0.2614,0.0001
0.945,1.1232,0.3196,0.2628,0.0001
0.95,1.1246,0.3213,0.2642,0.0001
0.955,1.126,0.3233,0.2656,0.0001
0.96,1.1275,0.3254,0.2671,0.0001
0.965,1.1291,0.3276,0.2686,0.0001
0.97,1.1307,0.3295,0.2703,0.0001
0.975,1.1323,0.3313,0.2719,0.0008
0.98,1.134,0.3331,0.2735,0.1011
0.985,1.1356,0.335,0.2752,0.4084
0.99,1.1371,0.337,0.2767,0.8284
0.995,1.1385,0.3391,0.2781,1.2868
1.0,1.1399,0.3411,0.2794,1.7338
1.005,1.1411,0.3428,0.2807,2.138
1.01,1.1424,0.3444,0.282,2.4828
1.015,1.1436,0.3461,0.2832,2.7623
1.02,1.1449,0.3479,0.2844,2.9778
1.025,1.1462,0.3499,0.2857,3.1351
1.03,1.1476,0.3517,0.2871,3.2428
1.035,1.149,0.3537,0.2886,3.31
1.04,1.1505,0.3554,0.2901,3.3461
1.045,1.152,0.3568,0.2916,3.3592
1.05,1.1535,0.3581,0.2931,3.3567
1.055,1.155,0.3594,0.2945,3.3443
1.06,1.1564,0.3611,0.296,3.3265
1.065,1.158,0.3632,0.2975,3.3068
1.07,1.1595,0.3651,0.2991,3.2873
1.075,1.1611,0.3671,0.3007,3.2695
1.08,1.1628,0.3689,0.3023,3.2542
1.085,1.1645,0.3706,0.304,3.2417
1.09,1.1662,0.3725,0.3057,3.232
1.095,1.1678,0.3747,0.3074,3.2249
1.1,1.1695,0.3771,0.3091,3.22
1.105,1.1712,0.3795,0.3107,3.2169
1.11,1.1727,0.3816,0.3123,3.2151
1.115,1.1742,0.3836,0.3138,3.2145
1.12,1.1757,0.3856,0.3153,3.2145
1.125,1.1771,0.3876,0.3167,3.215
1.13,1.1786,0.3896,0.3181,3.2158
1.135,1.18,0.392,0.3196,3.2167
1.14,1.1816,0.3945,0.3212,3.2176
1.145,1.1832,0.3968,0.3228,3.2184
1.15,1.1849,0.3987,0.3244,3.2191
1.155,1.1865,0.4004,0.326,3.2196
1.16,1.188,0.402,0.3276,3.2201
1.165,1.1894,0.4038,0.329,3.2204
1.17,1.1908,0.4056,0.3304,3.2206
1.175,1.1921,0.4072,0.3316,3.2207
1.18,1.1933,0.4087,0.3328,3.2208
1.185,1.1944,0.41,0.334,3.2208
1.19,1.1956,0.4112,0.3352,3.2208
1.195,1.1969,0.4126,0.3364,3.2208
1.2,1.1982,0.4143,0.3378,3.2207
1.205,1.1996,0.4161,0.3392,3.2207
1.21,1.2011,0.418,0.3406,3.2206
1.215,1.2026,0.4201,0.3421,3.2206
1.22,1.2041,0.4222,0.3436,3.2205
1.225,1.2056,0.4242,0.3451,3.2205
1.23,1.2071,0.4261,0.3467,3.2205
1.235,1.2086,0.428,0.3482,3.2205
1.24,1.2101,0.4299,0.3497,3.2205
1.245,1.2117,0.432,0.3513,3.2205
1.25,1.2135,0.434,0.353,3.2204
1.255,1.2152,0.436,0.3548,3.2204
1.26,1.217,0.4381,0.3565,3.2204
1.265,1.2188,0.4403,0.3583,3.2204
1.27,1.2205,0.4426,0.3601,3.2204
1.275,1.2223,0.4448,0.3619,3.2204
1.28,1.224,0.447,0.3635,3.2204
1.285,1.2256,0.4491,0.3651,3.2204
1.29,1.227,0.451,0.3666,3.2203
1.295,1.2285,0.4529,0.368,3.2203
1.3,1.2299,0.455,0.3695,3.2203
1.305,1.2314,0.4573,0.3709,3.2203
1.31,1.2329,0.4596,0.3725,3.2202
1.315,1.2345,0.4622,0.3741,3.2202
1.32,1.2362,0.465,0.3757,3.2202
1.325,1.2379,0.4678,0.3774,3.2202
1.33,1.2395,0.4705,0.3791,3.2202
1.335,1.2411,0.4729,0.3807,3.2201
1.34,1.2426,0.4753,0.3822,3.2202
1.345,1.244,0.4776,0.3836,3.2202
1.35,1.2453,0.4798,0.3849,3.2202
1.355,1.2466,0.4818,0.3862,3.2202
1.36,1.2479,0.484,0.3874,3.2203
1.365,1.2492,0.4862,0.3887,3.2203
1.37,1.2505,0.4883,0.3901,3.2203
1.375,1.2519,0.4907,0.3915,3.2203
1.38,1.2534,0.4931,0.3929,3.2203
1.385,1.2548,0.4956,0.3944,3.2203
1.39,1.2563,0.4982,0.3959,3.2203
1.395,1.2578,0.5005,0.3973,3.2203
1.4,1.2592,0.5027,0.3988,3.2203
1.405,1.2607,0.5049,0.4003,3.2203
1.41,1.2622,0.5071,0.4017,3.2203
1.415,1.2637,0.5095,0.4033,3.2204
1.42,1.2653,0.5124,0.4048,3.2204
1.425,1.2669,0.5155,0.4065,3.2204
1.43,1.2685,0.5185,0.4081,3.2204
1.435,1.2702,0.5215,0.4098,3.2204
1.44,1.2719,0.5244,0.4114,3.2204
1.445,1.2735,0.5272,0.4131,3.2204
1.45,1.2751,0.5302,0.4146,3.2204
1.455,1.2766,0.5333,0.4162,3.2204
1.46,1.2781,0.5363,0.4176,3.2204
1.465,1.2795,0.5394,0.4191,3.2204
1.47,1.2809,0.5423,0.4205,3.2203
1.475,1.2823,0.5448,0.4219,3.2203
1.48,1.2838,0.5474,0.4234,3.2203
1.485,1.2853,0.5501,0.4249,3.2203
1.49,1.2869,0.5531,0.4264,3.2203
1.495,1.2885,0.5562,0.428,3.2203
1.5,1.2901,0.5592,0.4297,3.2203
1.505,1.2917,0.562,0.4313,3.2203
1.51,1.2933,0.5644,0.4328,3.2203
1.515,1.2947,0.5666,0.4343,3.2203
1.52,1.296,0.5689,0.4356,3.2203
1.525,1.2973,0.5715,0.4368,3.2203
1.53,1.2985,0.5743,0.4381,3.2203
1.535,1.2997,0.5771,0.4393,3.2203
1.54,1.301,0.5799,0.4405,3.2203
1.545,1.3023,0.5828,0.4418,3.2203
1.55,1.3037,0.5856,0.4432,3.2203
1.555,1.3051,0.5882,0.4446,3.2203
1.56,1.3065,0.5907,0.4461,3.2203
1.565,1.308,0.5932,0.4476,3.2204
1.57,1.3094,0.5956,0.449,3.2204
1.575,1.3108,0.5978,0.4504,3.2204
1.58,1.3122,0.5999,0.4518,3.2204
1.585,1.3137,0.6023,0.4533,3.2204
1.59,1.3152,0.6047,0.4548,3.2204
1.595,1.3168,0.6072,0.4563,3.2204
1.6,1.3184,0.6098,0.4579,3.2203
1.605,1.32,0.6127,0.4596,3.2203
1.61,1.3218,0.6156,0.4613,3.2203
1.615,1.3235,0.6187,0.4631,3.2203
1.62,1.3252,0.6218,0.4648,3.2203
1.625,1.3269,0.6249,0.4665,3.2203
1.63,1.3285,0.628,0.4681,3.2203
1.635,1.33,0.6308,0.4696,3.2203
1.64,1.3315,0.6337,0.471,3.2203
1.645,1.3329,0.6367,0.4724,3.2203
1.65,1.3344,0.6397,0.4739,3.2203
1.655,1.3359,0.6428,0.4755,3.2203
1.66,1.3375,0.6459,0.4771,3.2203
1.665,1.3391,0.649,0.4787,3.2203
1.67,1.3408,0.6522,0.4804,3.2203
1.675,1.3425,0.6553,0.4821,3.2203
1.68,1.3442,0.658,0.4837,3.2203
1.685,1.3457,0.6606,0.4853,3.2203
1.69,1.3472,0.6633,0.4867,3.2203
1.695,1.3485,0.666,0.4881,3.2203
1.7,1.3498,0.6688,0.4894,3.2203
1.705,1.3511,0.6713,0.4906,3.2203
1.71,1.3523,0.6736,0.4919,3.2203
1.715,1.3536,0.6758,0.4931,3.2203
1.72,1.3549,0.678,0.4945,3.2203
1.725,1.3563,0.6804,0.4959,3.2203
1.73,1.3578,0.683,0.4974,3.2203
1.735,1.3593,0.6856,0.4989,3.2203
1.74,1.3608,0.688,0.5004,3.2203
1.745,1.3623,0.6904,0.5018,3.2203
1.75,1.3637,0.693,0.5033,3.2204
1.755,1.3652,0.6956,0.5047,3.2204
1.76,1.3666,0.6985,0.5062,3.2204
1.765,1.3682,0.7015,0.5078,3.2204
1.77,1.3698,0.7044,0.5093,3.2205
1.775,1.3714,0.7073,0.511,3.2205
1.78,1.3731,0.7099,0.5126,3.2205
1.785,1.3748,0.7125,0.5144,3.2205
1.79,1.3765,0.7152,0.5161,3.2205
1.795,1.3783,0.7182,0.5179,3.2205
1.8,1.38,0.7212,0.5195,3.2204
1.805,1.3816,0.7242,0.5211,3.2204
1.81,1.3831,0.7273,0.5227,3.2204
1.815,1.3846,0.7301,0.5242,3.2204
1.82,1.3862,0.7329,0.5258,3.2204
1.825,1.3877,0.736,0.5273,3.2204
1.83,1.3893,0.7392,0.5289,3.2204
1.835,1.3909,0.7426,0.5305,3.2204
1.84,1.3926,0.746,0.5322,3.2204
1.845,1.3943,0.7492,0.5339,3.2203
1.85,1.396,0.7522,0.5355,3.2203
1.855,1.3975,0.7549,0.537,3.2203
1.86,1.3989,0.7573,0.5384,3.2203
1.865,1.4001,0.7597,0.5397,3.2203
1.87,1.4013,0.7621,0.5409,3.2203
1.875,1.4025,0.7645,0.5421,3.2203
1.88,1.4037,0.7668,0.5432,3.2203
1.885,1.4049,0.7689,0.5444,3.2203
1.89,1.4062,0.7709,0.5457,3.2203
1.895,1.4075,0.773,0.5471,3.2204
1.9,1.4089,0.775,0.5485,3.2203
1.905,1.4104,0.7771,0.5499,3.2203
1.91,1.4118,0.7794,0.5514,3.2203
1.915,1.4133,0.7819,0.5529,3.2203
1.92,1.4148,0.7844,0.5543,3.2203
1.925,1.4162,0.7869,0.5558,3.2203
1.93,1.4176,0.7893,0.5572,3.2203
1.935,1.4191,0.7917,0.5587,3.2203
1.94,1.4207,0.7942,0.5602,3.2203
1.945,1.4223,0.797,0.5619,3.2204
1.95,1.424,0.8,0.5636,3.2204
1.955,1.4257,0.8031,0.5653,3.2204
1.96,1.4275,0.8061,0.567,3.2204
1.965,1.4292,0.809,0.5687,3.2204
1.97,1.4309,0.812,0.5704,3.2204
1.975,1.4325,0.8151,0.5721,3.2204
1.98,1.434,0.8183,0.5736,3.2204
1.985,1.4355,0.8215,0.5751,3.2204
1.99,1.437,0.8247,0.5765,3.2204
1.995,1.4384,0.8279,0.578,3.2204
2.0,1.4399,0.8311,0.5795,3.2203
2.005,1.4414,0.834,0.581,3.2203
2.01,1.443,0.8369,0.5826,3.2203
2.015,1.4446,0.84,0.5842,3.2203
2.02,1.4463,0.8432,0.5858,3.2203
2.025,1.4479,0.8465,0.5875,3.2202
2.03,1.4495,0.8499,0.589,3.2202
2.035,1.4509,0.8531,0.5905,3.2202
2.04,1.4523,0.8559,0.5919,3.2202
2.045,1.4536,0.8587,0.5932,3.2202
2.05,1.4548,0.8612,0.5944,3.2203
2.055,1.456,0.8637,0.5956,3.2203
2.06,1.4573,0.8665,0.5969,3.2203
2.065,1.4586,0.8694,0.5982,3.2203
2.07,1.46,0.8724,0.5996,3.2203
2.075,1.4614,0.8754,0.601,3.2203
2.08,1.4629,0.8782,0.6025,3.2203
2.085,1.4644,0.8806,0.604,3.2203
2.09,1.4659,0.883,0.6055,3.2203
2.095,1.4674,0.8856,0.6069,3.2203
2.1,1.4688,0.8882,0.6084,3.2203
2.105,1.4703,0.8909,0.6098,3.2203
2.11,1.4718,0.8936,0.6114,3.2203
2.115,1.4733,0.8964,0.6129,3.2203
2.12,1.4749,0.8996,0.6145,3.2203
2.125,1.4766,0.9029,0.6161,3.2204
2.13,1.4782,0.9064,0.6178,3.2204
2.135,1.4799,0.9101,0.6194,3.2204
2.14,1.4815,0.9138,0.6211,3.2204
2.145,1.4831,0.9172,0.6227,3.2204
2.15,1.4847,0.9204,0.6242,3.2204
2.155,1.4861,0.9235,0.6257,3.2204
2.16,1.4875,0.9265,0.6271,3.2204
2.165,1.4889,0.9294,0.6284,3.2203
2.17,1.4902,0.9324,0.6298,3.2203
2.175,1.4916,0.9355,0.6312,3.2203
2.18,1.4931,0.9387,0.6327,3.2203
2.185,1.4947,0.9418,0.6342,3.2203
2.19,1.4963,0.9449,0.6358,3.2203
2.195,1.4979,0.9482,0.6375,3.2203
2.2,1.4996,0.9515,0.6392,3.2203
2.205,1.5012,0.9548,0.6407,3.2203
2.21,1.5027,0.9579,0.6422,3.2203
2.215,1.5041,0.9609,0.6436,3.2203
2.22,1.5053,0.9639,0.6449,3.2203
2.225,1.5066,0.967,0.6462,3.2203
2.23,1.5078,0.97,0.6474,3.2203
2.235,1.5091,0.9731,0.6487,3.2203
2.24,1.5105,0.9762,0.6501,3.2203
2.245,1.5119,0.9792,0.6515,3.2204
2.25,1.5134,0.9822,0.653,3.2204
2.255,1.5149,0.9852,0.6545,3.2204
2.26,1.5164,0.9881,0.656,3.2204
2.265,1.5179,0.991,0.6575,3.2204
2.27,1.5194,0.9937,0.6589,3.2205
2.275,1.5209,0.9965,0.6604,3.2205
2.28,1.5224,0.9993,0.6619,3.2205
2.285,1.5239,1.0023,0.6635,3.2205
2.29,1.5255,1.0054,0.6651,3.2205
2.295,1.5272,1.0089,0.6668,3.2205
2.3,1.5289,1.0128,0.6685,3.2205
2.305,1.5306,1.0167,0.6702,3.2205
2.31,1.5324,1.0204,0.672,3.2205
2.315,1.5341,1.0242,0.6737,3.2204
2.32,1.5358,1.0279,0.6754,3.2204
2.325,1.5374,1.0318,0.677,3.2204
2.33,1.5389,1.0358,0.6785,3.2204
2.335,1.5404,1.0398,0.68,3.2204
2.34,1.5418,1.0438,0.6814,3.2204
2.345,1.5433,1.0478,0.6829,3.2204
2.35,1.5448,1.0516,0.6844,3.2204
2.355,1.5464,1.0555,0.6859,3.2204
2.36,1.548,1.0596,0.6876,3.2204
2.365,1.5497,1.0638,0.6893,3.2204
2.37,1.5514,1.0679,0.691,3.2204
2.375,1.553,1.0722,0.6926,3.2204
2.38,1.5546,1.0764,0.6941,3.2204
2.385,1.556,1.0803,0.6955,3.2204
2.39,1.5573,1.0841,0.6968,3.2204
2.395,1.5585,1.0877,0.6981,3.2204
2.4,1.5598,1.0915,0.6993,3.2204
2.405,1.561,1.0952,0.7006,3.2204
2.41,1.5623,1.099,0.7019,3.2204
2.415,1.5637,1.1027,0.7033,3.2204
2.42,1.5652,1.1067,0.7047,3.2203
2.425,1.5667,1.1106,0.7062,3.2203
2.43,1.5681,1.1146,0.7077,3.2203
2.435,1.5696,1.1186,0.7092,3.2203
2.44,1.5711,1.1225,0.7106,3.2202
2.445,1.5725,1.1263,0.7121,3.2202
2.45,1.5739,1.1302,0.7135,3.2202
2.455,1.5754,1.1341,0.715,3.2202
2.46,1.577,1.1383,0.7166,3.2203
2.465,1.5786,1.1426,0.7182,3.2203
2.47,1.5803,1.1467,0.7199,3.2203
2.475,1.582,1.1508,0.7215,3.2203
2.48,1.5837,1.155,0.7232,3.2203
2.485,1.5853,1.1592,0.7249,3.2203
2.49,1.587,1.1634,0.7265,3.2203
2.495,1.5886,1.1675,0.7281,3.2203
2.5,1.5901,1.1716,0.7296,3.2203
2.505,1.5915,1.1756,0.731,3.2204
2.51,1.5928,1.1796,0.7324,3.2204
2.515,1.5942,1.1833,0.7338,3.2204
2.52,1.5956,1.1872,0.7352,3.2204
2.525,1.5971,1.1911,0.7367,3.2204
2.53,1.5986,1.195,0.7382,3.2205
2.535,1.6002,1.1989,0.7398,3.2205
2.54,1.6018,1.2026,0.7413,3.2204
2.545,1.6033,1.2062,0.7429,3.2204
2.55,1.6049,1.2098,0.7444,3.2204
2.555,1.6063,1.2132,0.7459,3.2204
2.56,1.6077,1.2167,0.7472,3.2204
2.565,1.6089,1.2203,0.7485,3.2204
2.57,1.6102,1.2239,0.7498,3.2204
2.575,1.6114,1.2273,0.751,3.2203
2.58,1.6126,1.2307,0.7522,3.2203
2.585,1.6139,1.2338,0.7535,3.2203
2.59,1.6153,1.2367,0.7549,3.2203
2.595,1.6168,1.2396,0.7563,3.2203
2.6,1.6183,1.2426,0.7579,3.2203
2.605,1.6198,1.2458,0.7594,3.2203
2.61,1.6214,1.2492,0.7609,3.2203
2.615,1.6228,1.2526,0.7624,3.2203
2.62,1.6243,1.2561,0.7639,3.2204
2.625,1.6258,1.2599,0.7654,3.2204
2.63,1.6274,1.264,0.7669,3.2204
2.635,1.6289,1.2681,0.7685,3.2204
2.64,1.6305,1.2725,0.7701,3.2204
2.645,1.6321,1.2769,0.7717,3.2204
2.65,1.6338,1.2812,0.7734,3.2204
2.655,1.6355,1.2855,0.7751,3.2204
2.66,1.6372,1.2897,0.7768,3.2204
2.665,1.6389,1.2938,0.7785,3.2204
2.67,1.6405,1.298,0.78,3.2204
2.675,1.6419,1.3021,0.7815,3.2204
2.68,1.6434,1.3062,0.783,3.2204
2.685,1.6448,1.3104,0.7844,3.2204
2.69,1.6463,1.3143,0.7858,3.2204
2.695,1.6478,1.318,0.7873,3.2204
2.7,1.6493,1.3218,0.7889,3.2204
2.705,1.6509,1.3257,0.7905,3.2204
2.71,1.6526,1.3297,0.7921,3.2204
2.715,1.6543,1.3338,0.7938,3.2204
2.72,1.656,1.3379,0.7955,3.2203
2.725,1.6576,1.342,0.7971,3.2203
2.73,1.6591,1.3462,0.7986,3.2203
2.735,1.6604,1.3503,0.8,3.2203
2.74,1.6617,1.3542,0.8013,3.2203
2.745,1.6629,1.3581,0.8025,3.2203
2.75,1.6642,1.3619,0.8037,3.2203
2.755,1.6655,1.3655,0.805,3.2203
2.76,1.6668,1.3691,0.8064,3.2203
2.765,1.6682,1.3726,0.8078,3.2203
2.77,1.6697,1.3761,0.8093,3.2203
2.775,1.6712,1.3796,0.8108,3.2203
2.78,1.6728,1.3831,0.8123,3.2203
2.785,1.6743,1.3866,0.8139,3.2203
2.79,1.6758,1.3903,0.8154,3.2203
2.795,1.6773,1.394,0.8169,3.2203
2.8,1.6788,1.3976,0.8184,3.2204
2.805,1.6804,1.4013,0.8199,3.2204
2.81,1.6819,1.405,0.8215,3.2204
2.815,1.6836,1.4088,0.8231,3.2204
2.82,1.6852,1.4128,0.8248,3.2205
2.825,1.6868,1.417,0.8264,3.2205
2.83,1.6885,1.4216,0.8281,3.2205
2.835,1.6901,1.4262,0.8297,3.2205
2.84,1.6917,1.4306,0.8313,3.2206
2.845,1.6932,1.4349,0.8328,3.2206
2.85,1.6947,1.4392,0.8342,3.2206
2.855,1.6961,1.4433,0.8357,3.2206
2.86,1.6975,1.4474,0.8371,3.2206
2.865,1.699,1.4516,0.8385,3.2206
2.87,1.7005,1.4559,0.84,3.2206
2.875,1.702,1.4603,0.8416,3.2206
2.88,1.7036,1.4646,0.8432,3.2206
2.885,1.7054,1.4688,0.8449,3.2206
2.89,1.7071,1.4731,0.8466,3.2206
2.895,1.7087,1.4773,0.8483,3.2206
2.9,1.7103,1.4811,0.8499,3.2206
2.905,1.7117,1.4848,0.8513,3.2206
2.91,1.7131,1.4885,0.8526,3.2205
2.915,1.7143,1.4921,0.8539,3.2205
2.92,1.7155,1.4956,0.8551,3.2205
2.925,1.7168,1.4993,0.8564,3.2205
2.93,1.7181,1.503,0.8577,3.2205
2.935,1.7195,1.5068,0.8591,3.2205
2.94,1.721,1.5105,0.8605,3.2205
2.945,1.7225,1.5139,0.862,3.2205
2.95,1.724,1.5174,0.8635,3.2205
2.955,1.7254,1.5211,0.865,3.2204
2.96,1.7269,1.5249,0.8665,3.2204
2.965,1.7284,1.529,0.868,3.2204
2.97,1.7299,1.5333,0.8695,3.2204
2.975,1.7314,1.5374,0.871,3.2204
2.98,1.733,1.5415,0.8726,3.2204
2.985,1.7347,1.5454,0.8742,3.2204
2.99,1.7364,1.5493,0.876,3.2204
2.995,1.7381,1.5534,0.8777,3.2204
3.0,1.7399,1.5577,0.8794,3.2204
3.005,1.7416,1.5623,0.8811,3.2205
3.01,1.7433,1.5672,0.8828,3.2205
3.015,1.7449,1.5721,0.8844,3.2205
3.02,1.7464,1.5768,0.8859,3.2205
3.025,1.7478,1.5816,0.8874,3.2204
