Time,Displacement,Force,Compressive displacement,voltage_1
0.0,0.1084,0.0973,0.0,0.0002
0.005,0.1084,0.097,0.0,0.0002
0.01,0.1084,0.0969,0.0,0.0002
0.015,0.1084,0.0969,0.0,0.0002
0.02,0.1084,0.0971,0.0,0.0002
0.025,0.1084,0.0971,0.0,0.0002
0.03,0.1084,0.0971,0.0,0.0001
0.035,0.1084,0.0972,0.0,0.0002
0.04,0.1084,0.0974,0.0,0.0002
0.045,0.1084,0.0975,0.0,0.0001
0.05,0.1085,0.0976,0.0001,0.0002
0.055,0.1086,0.0976,0.0002,0.0002
0.06,0.1088,0.0977,0.0003,0.0001
0.065,0.1091,0.0979,0.0006,0.0001
0.07,0.1095,0.0982,0.0011,0.0002
0.075,0.1102,0.0987,0.0017,0.0002
0.08,0.111,0.0995,0.0026,0.0001
0.085,0.1121,0.1003,0.0037,0.0002
0.09,0.1134,0.1014,0.0049,0.0002
0.095,0.1147,0.1028,0.0063,0.0001
0.1,0.1163,0.1042,0.0078,0.0002
0.105,0.1179,0.1056,0.0095,0.0002
0.11,0.1195,0.1072,0.0111,0.0002
0.115,0.1212,0.1089,0.0128,0.0002
0.12,0.1228,0.1106,0.0144,0.0002
0.125,0.1244,0.1126,0.0159,0.0002
0.13,0.1259,0.1148,0.0175,0.0001
0.135,0.1274,0.117,0.019,0.0002
0.14,0.1289,0.1193,0.0205,0.0002
0.145,0.1304,0.1217,0.022,0.0001
0.15,0.132,0.1239,0.0235,0.0002
0.155,0.1335,0.1261,0.0251,0.0002
0.16,0.1351,0.1283,0.0267,0.0002
0.165,0.1368,0.1305,0.0283,0.0002
0.17,0.1385,0.1328,0.03,0.0002
0.175,0.1402,0.1351,0.0317,0.0002
0.18,0.1419,0.1372,0.0334,0.0001
0.185,0.1435,0.139,0.0351,0.0002
0.19,0.1451,0.141,0.0367,0.0002
0.195,0.1466,0.143,0.0382,0.0001
0.2,0.1481,0.1452,0.0396,0.0002
0.205,0.1495,0.1474,0.0411,0.0002
0.21,0.1509,0.1496,0.0425,0.0001
0.215,0.1523,0.1516,0.0439,0.0001
0.22,0.1538,0.1534,0.0454,0.0002
0.225,0.1554,0.1551,0.047,0.0002
0.23,0.157,0.1568,0.0485,0.0001
0.235,0.1586,0.1588,0.0502,0.0002
0.24,0.1601,0.1609,0.0517,0.0002
0.245,0.1616,0.1628,0.0532,0.0001
0.25,0.163,0.1644,0.0546,0.0002
0.255,0.1643,0.1658,0.0559,0.0002
0.26,0.1655,0.167,0.0571,0.0001
0.265,0.1667,0.1683,0.0583,0.0001
0.27,0.1678,0.1699,0.0594,0.0002
0.275,0.169,0.1717,0.0605,0.0002
0.28,0.1702,0.1737,0.0618,0.0001
0.285,0.1715,0.1754,0.063,0.0002
0.29,0.1728,0.1769,0.0644,0.0002
0.295,0.1742,0.1784,0.0658,0.0001
0.3,0.1756,0.1799,0.0672,0.0002
0.305,0.177,0.1816,0.0686,0.0002
0.31,0.1784,0.1834,0.07,0.0002
0.315,0.1798,0.1853,0.0714,0.0002
0.32,0.1812,0.1868,0.0728,0.0002
0.325,0.1827,0.1881,0.0743,0.0002
0.33,0.1842,0.1893,0.0757,0.0001
0.335,0.1857,0.1905,0.0773,0.0002
0.34,0.1873,0.1921,0.0788,0.0002
0.345,0.1889,0.1941,0.0805,0.0001
0.35,0.1905,0.1962,0.0821,0.0002
0.355,0.1922,0.1982,0.0837,0.0002
0.36,0.1937,0.2001,0.0853,0.0002
0.365,0.1953,0.2019,0.0869,0.0002
0.37,0.1967,0.2034,0.0883,0.0002
0.375,0.1981,0.2051,0.0897,0.0002
0.38,0.1995,0.2071,0.0911,0.0001
0.385,0.2009,0.2088,0.0925,0.0002
0.39,0.2023,0.2104,0.0938,0.0002
0.395,0.2037,0.2119,0.0953,0.0001
0.4,0.2053,0.2134,0.0968,0.0002
0.405,0.2068,0.2149,0.0984,0.0002
0.41,0.2085,0.2167,0.1001,0.0001
0.415,0.2102,0.2185,0.1017,0.0001
0.42,0.2118,0.2203,0.1034,0.0002
0.425,0.2135,0.2221,0.105,0.0002
0.43,0.215,0.2238,0.1066,0.0001
0.435,0.2165,0.2253,0.1081,0.0002
0.44,0.2179,0.227,0.1094,0.0002
0.445,0.2192,0.2287,0.1107,0.0001
0.45,0.2204,0.2304,0.112,0.0002
0.455,0.2218,0.2322,0.1134,0.0002
0.46,0.2232,0.2341,0.1147,0.0002
0.465,0.2246,0.236,0.1162,0.0002
0.47,0.2261,0.2379,0.1177,0.0002
0.475,0.2277,0.2399,0.1193,0.0002
0.48,0.2293,0.2418,0.1208,0.0001
0.485,0.2308,0.2438,0.1224,0.0002
0.49,0.2323,0.2456,0.1239,0.0002
0.495,0.2339,0.2472,0.1254,0.0001
0.5,0.2354,0.2488,0.127,0.0002
0.505,0.237,0.2505,0.1286,0.0002
0.51,0.2387,0.2523,0.1303,0.0002
0.515,0.2404,0.2544,0.132,0.0001
0.52,0.2421,0.257,0.1337,0.0002
0.525,0.2438,0.2596,0.1354,0.0002
0.53,0.2456,0.262,0.1371,0.0001
0.535,0.2473,0.2643,0.1388,0.0002
0.54,0.2489,0.2664,0.1405,0.0002
0.545,0.2505,0.2685,0.142,0.0001
0.55,0.2519,0.2706,0.1435,0.0002
0.555,0.2534,0.2726,0.145,0.0002
0.56,0.2549,0.2746,0.1464,0.0001
0.565,0.2564,0.2767,0.1479,0.0001
0.57,0.2579,0.2788,0.1495,0.0002
0.575,0.2595,0.2809,0.1511,0.0002
0.58,0.2612,0.2831,0.1527,0.0001
0.585,0.2629,0.2853,0.1544,0.0002
0.59,0.2646,0.2875,0.1561,0.0002
0.595,0.2662,0.2895,0.1578,0.0001
0.6,0.2677,0.2915,0.1593,0.0002
0.605,0.2691,0.2934,0.1607,0.0002
0.61,0.2703,0.2952,0.1619,0.0002
0.615,0.2715,0.297,0.1631,0.0001
0.62,0.2727,0.2987,0.1643,0.0002
0.625,0.2739,0.3003,0.1655,0.0002
0.63,0.2751,0.3019,0.1667,0.0001
0.635,0.2765,0.3037,0.168,0.0002
0.64,0.2779,0.3057,0.1694,0.0002
0.645,0.2793,0.3078,0.1709,0.0001
0.65,0.2808,0.3098,0.1724,0.0002
0.655,0.2822,0.3117,0.1738,0.0002
0.66,0.2837,0.3133,0.1752,0.0002
0.665,0.2851,0.3148,0.1767,0.0002
0.67,0.2865,0.3163,0.1781,0.0002
0.675,0.288,0.318,0.1796,0.0002
0.68,0.2895,0.3197,0.1811,0.0001
0.685,0.2911,0.3218,0.1827,0.0002
0.69,0.2928,0.3241,0.1844,0.0002
0.695,0.2944,0.3264,0.186,0.0001
0.7,0.2961,0.3285,0.1877,0.0002
0.705,0.2978,0.3306,0.1894,0.0002
0.71,0.2995,0.3326,0.191,0.0001
0.715,0.301,0.3345,0.1926,0.0001
0.72,0.3025,0.3366,0.1941,0.0002
0.725,0.304,0.3388,0.1956,0.0002
0.73,0.3054,0.3406,0.197,0.0001
0.735,0.3069,0.3422,0.1984,0.0002
0.74,0.3083,0.3438,0.1999,0.0002
0.745,0.3098,0.3456,0.2014,0.0001
0.75,0.3114,0.3479,0.203,0.0002
0.755,0.3131,0.3505,0.2046,0.0002
0.76,0.3147,0.3529,0.2063,0.0002
0.765,0.3164,0.3553,0.208,0.0002
0.77,0.318,0.3576,0.2096,0.0002
0.775,0.3196,0.3595,0.2111,0.0002
0.78,0.321,0.3613,0.2125,0.0001
0.785,0.3223,0.3632,0.2138,0.0002
0.79,0.3235,0.3648,0.2151,0.0002
0.795,0.3247,0.3662,0.2163,0.0001
0.8,0.326,0.3676,0.2176,0.0002
0.805,0.3273,0.3691,0.2188,0.0002
0.81,0.3286,0.3708,0.2202,0.0002
0.815,0.33,0.3728,0.2216,0.0002
0.82,0.3315,0.3749,0.2231,0.0002
0.825,0.333,0.377,0.2246,0.0002
0.83,0.3344,0.3787,0.226,0.0001
0.835,0.3359,0.3801,0.2274,0.0002
0.84,0.3373,0.3814,0.2288,0.0002
0.845,0.3387,0.3831,0.2303,0.0001
0.85,0.3402,0.3853,0.2318,0.0069
0.855,0.3418,0.3876,0.2333,0.1651
0.86,0.3433,0.3899,0.2349,0.5107
0.865,0.345,0.392,0.2365,0.9467
0.87,0.3466,0.394,0.2382,1.4062
0.875,0.3483,0.396,0.2399,1.8442
0.88,0.35,0.3981,0.2416,2.2339
0.885,0.3517,0.4002,0.2432,2.562
0.89,0.3533,0.4024,0.2448,2.8243
0.895,0.3548,0.4044,0.2464,3.0238
0.9,0.3563,0.4059,0.2479,3.1673
0.905,0.3577,0.4075,0.2493,3.2636
0.91,0.3591,0.4093,0.2507,3.3218
0.915,0.3606,0.4113,0.2522,3.3511
0.92,0.3621,0.4136,0.2537,3.3596
0.925,0.3638,0.4161,0.2553,3.3539
0.93,0.3655,0.4184,0.257,3.3397
0.935,0.3671,0.4204,0.2587,3.3212
0.94,0.3688,0.4222,0.2604,3.3013
0.945,0.3704,0.4241,0.262,3.282
0.95,0.3719,0.4259,0.2635,3.2649
0.955,0.3732,0.4278,0.2648,3.2503
0.96,0.3744,0.4295,0.266,3.2385
0.965,0.3756,0.4309,0.2672,3.2296
0.97,0.3768,0.4323,0.2684,3.2232
0.975,0.3781,0.4341,0.2697,3.2187
0.98,0.3794,0.4359,0.271,3.216
0.985,0.3808,0.438,0.2723,3.2146
0.99,0.3822,0.4402,0.2738,3.2142
0.995,0.3837,0.4421,0.2752,3.2143
1.0,0.3851,0.4435,0.2767,3.215
1.005,0.3866,0.4449,0.2781,3.2158
1.01,0.388,0.4463,0.2796,3.2166
1.015,0.3895,0.448,0.281,3.2174
1.02,0.3909,0.4501,0.2825,3.2182
1.025,0.3925,0.4524,0.2841,3.2188
1.03,0.3941,0.4549,0.2857,3.2193
1.035,0.3958,0.4569,0.2874,3.2197
1.04,0.3976,0.4587,0.2891,3.22
1.045,0.3994,0.4607,0.2909,3.2201
1.05,0.4012,0.4629,0.2927,3.2203
1.055,0.403,0.4651,0.2945,3.2204
1.06,0.4047,0.4671,0.2963,3.2204
1.065,0.4063,0.4689,0.2979,3.2203
1.07,0.4079,0.4704,0.2995,3.2204
1.075,0.4094,0.472,0.301,3.2203
1.08,0.4109,0.4739,0.3024,3.2202
1.085,0.4123,0.476,0.3039,3.2202
1.09,0.4139,0.4785,0.3054,3.2202
1.095,0.4154,0.4812,0.307,3.2201
1.1,0.4171,0.4837,0.3087,3.2201
1.105,0.4188,0.4859,0.3103,3.2202
1.11,0.4204,0.488,0.312,3.2201
1.115,0.4221,0.4899,0.3136,3.2201
1.12,0.4236,0.4914,0.3152,3.2201
1.125,0.425,0.493,0.3166,3.2201
1.13,0.4263,0.4947,0.3178,3.22
1.135,0.4275,0.4962,0.3191,3.2201
1.14,0.4288,0.4977,0.3203,3.2201
1.145,0.43,0.4992,0.3216,3.2201
1.15,0.4313,0.5007,0.3229,3.2201
1.155,0.4327,0.5024,0.3242,3.2202
1.16,0.4341,0.5045,0.3257,3.2202
1.165,0.4356,0.5066,0.3272,3.2202
1.17,0.437,0.5085,0.3286,3.2203
1.175,0.4385,0.5104,0.3301,3.2203
1.18,0.4399,0.5122,0.3315,3.2202
1.185,0.4414,0.5136,0.333,3.2203
1.19,0.4428,0.5151,0.3344,3.2203
1.195,0.4443,0.5169,0.3359,3.2202
1.2,0.4459,0.5188,0.3374,3.2203
1.205,0.4475,0.5208,0.339,3.2203
1.21,0.4491,0.5227,0.3407,3.2202
1.215,0.4508,0.5244,0.3424,3.2202
1.22,0.4524,0.5259,0.344,3.2203
1.225,0.4541,0.5274,0.3457,3.2202
1.23,0.4558,0.5291,0.3473,3.2202
1.235,0.4573,0.5311,0.3489,3.2203
1.24,0.4588,0.533,0.3504,3.2203
1.245,0.4603,0.5348,0.3519,3.2202
1.25,0.4617,0.5367,0.3533,3.2203
1.255,0.4632,0.5387,0.3547,3.2203
1.26,0.4646,0.5409,0.3562,3.2202
1.265,0.4661,0.5431,0.3577,3.2202
1.27,0.4677,0.5456,0.3593,3.2203
1.275,0.4693,0.5481,0.3609,3.2202
1.28,0.471,0.5505,0.3626,3.2201
1.285,0.4727,0.5525,0.3643,3.2202
1.29,0.4743,0.5539,0.3659,3.2202
1.295,0.4758,0.5552,0.3674,3.2201
1.3,0.4772,0.5566,0.3688,3.2201
1.305,0.4785,0.5581,0.3701,3.2201
1.31,0.4798,0.5598,0.3713,3.2201
1.315,0.481,0.5617,0.3726,3.2201
1.32,0.4823,0.5635,0.3738,3.2202
1.325,0.4835,0.5652,0.3751,3.2201
1.33,0.4848,0.5671,0.3764,3.2201
1.335,0.4862,0.5691,0.3778,3.2202
1.34,0.4877,0.5713,0.3792,3.2202
1.345,0.4891,0.5737,0.3807,3.2201
1.35,0.4905,0.5762,0.3821,3.2202
1.355,0.4919,0.5787,0.3834,3.2203
1.36,0.4932,0.5813,0.3848,3.2202
1.365,0.4946,0.5839,0.3862,3.2202
1.37,0.4961,0.5866,0.3877,3.2203
1.375,0.4976,0.5895,0.3892,3.2203
1.38,0.4992,0.5926,0.3908,3.2202
1.385,0.5008,0.5955,0.3924,3.2203
1.39,0.5024,0.5984,0.394,3.2203
1.395,0.504,0.6014,0.3956,3.2202
1.4,0.5057,0.6045,0.3972,3.2202
1.405,0.5073,0.6077,0.3989,3.2202
1.41,0.5089,0.6108,0.4005,3.2201
1.415,0.5104,0.6139,0.402,3.2201
1.42,0.5119,0.6172,0.4035,3.2201
1.425,0.5134,0.6207,0.4049,3.2201
1.43,0.5148,0.6242,0.4064,3.22
1.435,0.5163,0.6278,0.4079,3.22
1.44,0.5179,0.6312,0.4095,3.22
1.445,0.5196,0.6345,0.4111,3.2199
1.45,0.5213,0.6377,0.4129,3.22
1.455,0.5231,0.6412,0.4146,3.22
1.46,0.5248,0.6445,0.4164,3.22
1.465,0.5265,0.6476,0.4181,3.22
1.47,0.5281,0.6505,0.4197,3.22
1.475,0.5295,0.6534,0.4211,3.22
1.48,0.5309,0.6563,0.4224,3.2199
1.485,0.5321,0.6592,0.4237,3.22
1.49,0.5334,0.6624,0.425,3.22
1.495,0.5347,0.6656,0.4263,3.2199
1.5,0.5361,0.6688,0.4276,3.22
1.505,0.5375,0.6717,0.429,3.2201
1.51,0.5389,0.6745,0.4305,3.22
1.515,0.5404,0.6772,0.432,3.22
1.52,0.5419,0.68,0.4335,3.2201
1.525,0.5434,0.6825,0.4349,3.2201
1.53,0.5448,0.6851,0.4364,3.2201
1.535,0.5462,0.6878,0.4378,3.2202
1.54,0.5477,0.6906,0.4393,3.2202
1.545,0.5492,0.6934,0.4408,3.2202
1.55,0.5507,0.6963,0.4423,3.2202
1.555,0.5523,0.6993,0.4439,3.2203
1.56,0.5539,0.7024,0.4455,3.2202
1.565,0.5556,0.7057,0.4472,3.2202
1.57,0.5573,0.7089,0.4489,3.2203
1.575,0.559,0.7122,0.4505,3.2202
1.58,0.5607,0.7157,0.4522,3.2202
1.585,0.5623,0.7192,0.4538,3.2202
1.59,0.5638,0.7225,0.4554,3.2203
1.595,0.5654,0.7258,0.457,3.2202
1.6,0.5669,0.729,0.4584,3.2202
1.605,0.5684,0.7323,0.4599,3.2202
1.61,0.5699,0.7356,0.4615,3.2201
1.615,0.5715,0.739,0.4631,3.2201
1.62,0.5732,0.7424,0.4648,3.2202
1.625,0.5749,0.7456,0.4665,3.2201
1.63,0.5766,0.7487,0.4681,3.22
1.635,0.5782,0.7517,0.4697,3.2201
1.64,0.5797,0.7546,0.4713,3.2201
1.645,0.5811,0.7576,0.4727,3.22
1.65,0.5824,0.7606,0.474,3.22
1.655,0.5836,0.7638,0.4752,3.22
1.66,0.5849,0.767,0.4764,3.22
1.665,0.5861,0.7699,0.4776,3.2199
1.67,0.5873,0.7724,0.4789,3.22
1.675,0.5887,0.775,0.4803,3.22
1.68,0.5901,0.7777,0.4817,3.2199
1.685,0.5916,0.7806,0.4832,3.22
1.69,0.593,0.7834,0.4846,3.22
1.695,0.5945,0.786,0.4861,3.2199
1.7,0.5959,0.7885,0.4875,3.22
1.705,0.5974,0.7911,0.4889,3.22
1.71,0.5988,0.7938,0.4904,3.22
1.715,0.6003,0.7965,0.4919,3.22
1.72,0.6019,0.7996,0.4934,3.2201
1.725,0.6035,0.8029,0.495,3.2201
1.73,0.6051,0.8062,0.4967,3.22
1.735,0.6068,0.8094,0.4984,3.2201
1.74,0.6085,0.8126,0.5001,3.2201
1.745,0.6102,0.8158,0.5018,3.22
1.75,0.6119,0.8192,0.5035,3.2201
1.755,0.6135,0.8231,0.5051,3.2201
1.76,0.6151,0.828,0.5067,3.2201
1.765,0.6166,0.8337,0.5081,3.2201
1.77,0.618,0.8403,0.5096,3.2202
1.775,0.6194,0.8477,0.511,3.2201
1.78,0.6208,0.8557,0.5124,3.2201
1.785,0.6223,0.8642,0.5139,3.2201
1.79,0.6239,0.8727,0.5154,3.2201
1.795,0.6254,0.8813,0.517,3.22
1.8,0.627,0.8899,0.5186,3.2201
1.805,0.6286,0.8987,0.5202,3.2201
1.81,0.6302,0.9077,0.5217,3.22
1.815,0.6316,0.9168,0.5232,3.22
1.82,0.6329,0.9256,0.5245,3.22
1.825,0.6342,0.9342,0.5258,3.2199
1.83,0.6355,0.9424,0.527,3.2199
1.835,0.6367,0.9502,0.5283,3.22
1.84,0.6379,0.9579,0.5295,3.22
1.845,0.6392,0.9657,0.5308,3.2199
1.85,0.6406,0.9734,0.5321,3.22
1.855,0.642,0.9808,0.5335,3.22
1.86,0.6434,0.9877,0.535,3.2199
1.865,0.6449,0.9945,0.5365,3.2199
1.87,0.6464,1.0013,0.538,3.22
1.875,0.6479,1.0083,0.5394,3.22
1.88,0.6493,1.016,0.5409,3.22
1.885,0.6508,1.0239,0.5424,3.2201
1.89,0.6524,1.0315,0.5439,3.2202
1.895,0.6539,1.039,0.5455,3.2201
1.9,0.6555,1.0461,0.5471,3.2202
1.905,0.6572,1.0531,0.5488,3.2202
1.91,0.6588,1.0604,0.5504,3.2201
1.915,0.6605,1.0681,0.5521,3.2201
1.92,0.6622,1.0758,0.5538,3.2202
1.925,0.6639,1.0836,0.5554,3.2201
1.93,0.6654,1.0912,0.557,3.2201
1.935,0.667,1.0984,0.5585,3.2201
1.94,0.6684,1.1054,0.56,3.2201
1.945,0.6699,1.1124,0.5614,3.22
1.95,0.6713,1.1195,0.5628,3.22
1.955,0.6727,1.1267,0.5643,3.2201
1.96,0.6742,1.1339,0.5657,3.22
1.965,0.6757,1.1408,0.5673,3.2199
1.97,0.6773,1.1476,0.5689,3.22
1.975,0.679,1.1543,0.5705,3.2199
1.98,0.6806,1.1613,0.5721,3.2199
1.985,0.6821,1.1688,0.5737,3.22
1.99,0.6836,1.1764,0.5752,3.22
1.995,0.685,1.1838,0.5766,3.2199
2.0,0.6863,1.191,0.5779,3.2199
2.005,0.6875,1.1978,0.5791,3.22
2.01,0.6888,1.2043,0.5803,3.2199
2.015,0.69,1.2109,0.5816,3.2199
2.02,0.6913,1.2174,0.5829,3.22
2.025,0.6926,1.2236,0.5842,3.22
2.03,0.6941,1.2297,0.5856,3.22
2.035,0.6955,1.2358,0.5871,3.2201
2.04,0.6971,1.2418,0.5886,3.2201
2.045,0.6986,1.2483,0.5902,3.2201
2.05,0.7001,1.255,0.5916,3.2201
2.055,0.7015,1.262,0.5931,3.2201
2.06,0.703,1.2692,0.5946,3.2201
2.065,0.7045,1.2767,0.5961,3.22
2.07,0.7061,1.2842,0.5977,3.2201
2.075,0.7078,1.2917,0.5994,3.22
2.08,0.7095,1.2995,0.6011,3.22
2.085,0.7112,1.3078,0.6028,3.22
2.09,0.713,1.3163,0.6045,3.22
2.095,0.7148,1.3252,0.6063,3.22
2.1,0.7165,1.3344,0.6081,3.22
2.105,0.7182,1.3436,0.6097,3.2201
2.11,0.7197,1.3528,0.6113,3.22
2.115,0.7213,1.3621,0.6129,3.22
2.12,0.7228,1.3712,0.6144,3.2201
2.125,0.7244,1.3802,0.616,3.22
2.13,0.726,1.3892,0.6176,3.22
2.135,0.7276,1.3979,0.6192,3.22
2.14,0.7293,1.4063,0.6209,3.22
2.145,0.731,1.4145,0.6226,3.2199
2.15,0.7327,1.4229,0.6242,3.22
2.155,0.7343,1.4313,0.6259,3.22
2.16,0.7358,1.4398,0.6274,3.2199
2.165,0.7372,1.4483,0.6288,3.2199
2.17,0.7385,1.4565,0.6301,3.22
2.175,0.7397,1.464,0.6313,3.2199
2.18,0.7409,1.471,0.6325,3.2199
2.185,0.7422,1.4777,0.6338,3.2199
2.19,0.7435,1.4841,0.635,3.2199
2.195,0.7448,1.4902,0.6364,3.2199
2.2,0.7462,1.4961,0.6378,3.22
2.205,0.7477,1.5019,0.6393,3.2201
2.21,0.7491,1.5078,0.6407,3.22
2.215,0.7506,1.5137,0.6422,3.22
2.22,0.752,1.5197,0.6436,3.2201
2.225,0.7535,1.5259,0.645,3.2201
2.23,0.7549,1.5324,0.6465,3.2201
2.235,0.7564,1.5393,0.6479,3.2202
2.24,0.7579,1.5463,0.6494,3.2202
2.245,0.7594,1.5533,0.651,3.2201
2.25,0.761,1.5607,0.6526,3.2202
2.255,0.7627,1.5684,0.6543,3.2202
2.26,0.7644,1.5763,0.6559,3.2201
2.265,0.766,1.5845,0.6576,3.2201
2.27,0.7677,1.5929,0.6592,3.2202
2.275,0.7693,1.601,0.6609,3.2201
2.28,0.7708,1.6089,0.6624,3.2201
2.285,0.7723,1.6166,0.6639,3.2201
2.29,0.7737,1.6242,0.6653,3.2201
2.295,0.7752,1.6315,0.6667,3.22
2.3,0.7766,1.6387,0.6682,3.2201
2.305,0.7781,1.6458,0.6697,3.2201
2.31,0.7797,1.6529,0.6712,3.22
2.315,0.7813,1.6602,0.6729,3.22
2.32,0.7829,1.6678,0.6745,3.22
2.325,0.7845,1.6756,0.6761,3.22
2.33,0.7861,1.6834,0.6777,3.2199
2.335,0.7876,1.6913,0.6792,3.22
2.34,0.789,1.6987,0.6806,3.22
2.345,0.7903,1.7059,0.6819,3.2199
2.35,0.7916,1.713,0.6832,3.2199
2.355,0.7928,1.7199,0.6844,3.22
2.36,0.7941,1.7264,0.6856,3.2199
2.365,0.7953,1.7327,0.6869,3.2199
2.37,0.7967,1.7389,0.6883,3.22
2.375,0.7981,1.7449,0.6897,3.22
2.38,0.7995,1.7512,0.6911,3.22
2.385,0.801,1.7577,0.6926,3.2201
2.39,0.8024,1.7645,0.694,3.2201
2.395,0.8038,1.7713,0.6954,3.22
2.4,0.8053,1.778,0.6969,3.2201
2.405,0.8067,1.7844,0.6983,3.2202
2.41,0.8083,1.7909,0.6999,3.2201
2.415,0.8098,1.7976,0.7014,3.2201
2.42,0.8114,1.8046,0.703,3.2202
2.425,0.8131,1.8122,0.7047,3.2201
2.43,0.8148,1.8201,0.7064,3.2201
2.435,0.8165,1.8285,0.7081,3.2202
2.44,0.8182,1.837,0.7098,3.2202
2.445,0.8199,1.8455,0.7115,3.2201
2.45,0.8215,1.8541,0.7131,3.2201
2.455,0.823,1.863,0.7146,3.2202
2.46,0.8245,1.8718,0.7161,3.2201
2.465,0.826,1.8803,0.7175,3.22
2.47,0.8273,1.8886,0.7189,3.2201
2.475,0.8288,1.8965,0.7203,3.22
2.48,0.8303,1.9041,0.7219,3.2199
2.485,0.8319,1.9118,0.7234,3.22
2.49,0.8335,1.9198,0.7251,3.22
2.495,0.8351,1.9278,0.7267,3.2199
2.5,0.8368,1.9358,0.7284,3.2199
2.505,0.8384,1.9435,0.73,3.2199
2.51,0.84,1.9512,0.7315,3.2198
2.515,0.8414,1.9588,0.733,3.2199
2.52,0.8427,1.9665,0.7343,3.22
2.525,0.844,1.974,0.7355,3.22
2.53,0.8451,1.9814,0.7367,3.22
2.535,0.8464,1.9886,0.738,3.2201
2.54,0.8477,1.9954,0.7393,3.2201
2.545,0.8491,2.0017,0.7407,3.22
2.55,0.8505,2.0081,0.7421,3.2201
2.555,0.852,2.0147,0.7436,3.2201
2.56,0.8535,2.0215,0.7451,3.2201
2.565,0.855,2.0283,0.7465,3.2201
2.57,0.8565,2.035,0.748,3.2202
2.575,0.858,2.0415,0.7495,3.2201
2.58,0.8595,2.0479,0.7511,3.2201
2.585,0.861,2.0545,0.7526,3.2201
2.59,0.8625,2.0613,0.7541,3.2201
2.595,0.8642,2.0686,0.7557,3.22
2.6,0.8658,2.0762,0.7574,3.22
2.605,0.8675,2.0838,0.759,3.2201
2.61,0.8691,2.0914,0.7607,3.22
2.615,0.8708,2.0989,0.7624,3.22
2.62,0.8724,2.1065,0.764,3.22
2.625,0.874,2.1141,0.7656,3.2199
2.63,0.8755,2.1219,0.7671,3.2198
2.635,0.8769,2.1294,0.7685,3.2198
2.64,0.8784,2.1365,0.7699,3.2198
2.645,0.8798,2.1429,0.7714,3.2198
2.65,0.8813,2.1488,0.7729,3.2198
2.655,0.8829,2.1549,0.7744,3.2199
2.66,0.8845,2.1615,0.7761,3.2198
2.665,0.8862,2.1683,0.7778,3.2198
2.67,0.8879,2.1752,0.7795,3.2199
2.675,0.8897,2.1822,0.7812,3.2199
2.68,0.8913,2.189,0.7829,3.2198
2.685,0.8928,2.1954,0.7844,3.22
2.69,0.8942,2.2019,0.7858,3.22
2.695,0.8955,2.2084,0.7871,3.22
2.7,0.8968,2.2148,0.7884,3.22
2.705,0.898,2.221,0.7896,3.2201
2.71,0.8993,2.2269,0.7909,3.22
2.715,0.9007,2.2327,0.7923,3.22
2.72,0.9021,2.2384,0.7937,3.2201
2.725,0.9035,2.2439,0.7951,3.2201
2.73,0.905,2.2494,0.7966,3.22
2.735,0.9064,2.2551,0.798,3.2201
2.74,0.9079,2.2608,0.7995,3.2201
2.745,0.9093,2.2665,0.8009,3.22
2.75,0.9108,2.2721,0.8023,3.2201
2.755,0.9123,2.2778,0.8038,3.2201
2.76,0.9138,2.2839,0.8054,3.22
2.765,0.9154,2.2903,0.807,3.22
2.77,0.917,2.2971,0.8086,3.2201
2.775,0.9187,2.3045,0.8103,3.22
2.78,0.9204,2.3122,0.812,3.22
2.785,0.9221,2.3201,0.8137,3.22
2.79,0.9238,2.3277,0.8154,3.22
2.795,0.9255,2.3353,0.817,3.2199
2.8,0.927,2.3429,0.8186,3.2199
2.805,0.9285,2.3506,0.8201,3.22
2.81,0.93,2.3583,0.8216,3.2199
2.815,0.9315,2.366,0.8231,3.2199
2.82,0.933,2.3737,0.8246,3.2199
2.825,0.9345,2.3811,0.8261,3.2199
2.83,0.936,2.3883,0.8276,3.2198
2.835,0.9377,2.3957,0.8292,3.2199
2.84,0.9393,2.4033,0.8309,3.2199
2.845,0.9409,2.4112,0.8325,3.2199
2.85,0.9425,2.4194,0.8341,3.22
2.855,0.944,2.4275,0.8356,3.22
2.86,0.9454,2.4354,0.837,3.22
2.865,0.9467,2.443,0.8383,3.22
2.87,0.9479,2.4503,0.8395,3.2201
2.875,0.9491,2.4574,0.8406,3.2201
2.88,0.9502,2.4644,0.8418,3.22
2.885,0.9515,2.4715,0.843,3.2201
2.89,0.9527,2.4782,0.8443,3.2201
2.895,0.954,2.4847,0.8456,3.2201
2.9,0.9555,2.4911,0.847,3.2201
2.905,0.9569,2.4975,0.8485,3.2202
2.91,0.9583,2.5039,0.8499,3.2201
2.915,0.9597,2.5104,0.8513,3.2201
2.92,0.9611,2.517,0.8526,3.2202
2.925,0.9625,2.5235,0.854,3.2201
2.93,0.9639,2.5297,0.8555,3.2201
2.935,0.9654,2.5357,0.857,3.2202
2.94,0.967,2.542,0.8586,3.2202
2.945,0.9686,2.5485,0.8602,3.2201
2.95,0.9702,2.5552,0.8618,3.2201
2.955,0.9719,2.5621,0.8634,3.2202
2.96,0.9736,2.5692,0.8651,3.2201
2.965,0.9753,2.5765,0.8668,3.2201
2.97,0.977,2.584,0.8685,3.2202
2.975,0.9786,2.5915,0.8702,3.2201
2.98,0.9801,2.5991,0.8717,3.2201
2.985,0.9816,2.607,0.8732,3.2201
2.99,0.9831,2.6149,0.8747,3.2201
2.995,0.9846,2.6229,0.8762,3.2201
3.0,0.9861,2.631,0.8777,3.2201
3.005,0.9877,2.6394,0.8792,3.2202
3.01,0.9893,2.6478,0.8809,3.2201
3.015,0.9909,2.6563,0.8825,3.2201
3.02,0.9926,2.6651,0.8842,3.2201
3.025,0.9943,2.674,0.8858,3.2201
3.03,0.9958,2.6828,0.8874,3.22
3.035,0.9972,2.6917,0.8888,3.2201
3.04,0.9985,2.7003,0.8901,3.2201
3.045,0.9998,2.7088,0.8914,3.22
