Time,Displacement,Force,Compressive displacement,voltage_1
0.0,0.1688,0.1131,0.0,0.0022
0.005,0.1688,0.1128,0.0,0.0022
0.01,0.1688,0.1125,0.0,0.0022
0.015,0.1688,0.1127,0.0,0.0022
0.02,0.1688,0.1138,0.0,0.0022
0.025,0.1688,0.1147,0.0,0.0022
0.03,0.1688,0.1155,0.0,0.0022
0.035,0.1688,0.1159,0.0,0.0022
0.04,0.1688,0.1162,0.0,0.0022
0.045,0.1689,0.1163,0.0,0.0022
0.05,0.1689,0.1163,0.0001,0.0022
0.055,0.169,0.1161,0.0002,0.0022
0.06,0.1691,0.1153,0.0002,0.0022
0.065,0.1692,0.1149,0.0004,0.0022
0.07,0.1695,0.1149,0.0007,0.0022
0.075,0.17,0.1153,0.0012,0.0022
0.08,0.1707,0.1165,0.0019,0.0022
0.085,0.1717,0.1185,0.0029,0.0022
0.09,0.1729,0.12,0.0041,0.0022
0.095,0.1744,0.1213,0.0056,0.0022
0.1,0.1761,0.1227,0.0073,0.0022
0.105,0.1778,0.1239,0.009,0.0022
0.11,0.1794,0.1256,0.0105,0.0022
0.115,0.1808,0.1276,0.0119,0.0022
0.12,0.1821,0.1292,0.0133,0.0022
0.125,0.1833,0.1309,0.0145,0.0022
0.13,0.1845,0.1324,0.0157,0.0022
0.135,0.1857,0.1337,0.0169,0.0022
0.14,0.187,0.1349,0.0182,0.0022
0.145,0.1882,0.1361,0.0194,0.0022
0.15,0.1896,0.1386,0.0208,0.0022
0.155,0.191,0.1419,0.0222,0.0022
0.16,0.1925,0.1451,0.0236,0.0022
0.165,0.1939,0.148,0.0251,0.0022
0.17,0.1954,0.1513,0.0266,0.0022
0.175,0.1969,0.1544,0.0281,0.0022
0.18,0.1984,0.1577,0.0296,0.0022
0.185,0.1998,0.1609,0.031,0.0022
0.19,0.2012,0.164,0.0324,0.0022
0.195,0.2025,0.1673,0.0337,0.0022
0.2,0.2038,0.1701,0.035,0.0022
0.205,0.2051,0.1719,0.0363,0.0022
0.21,0.2064,0.1733,0.0376,0.0022
0.215,0.2078,0.1751,0.039,0.0022
0.22,0.2092,0.1774,0.0404,0.0022
0.225,0.2108,0.18,0.0419,0.0022
0.23,0.2123,0.1827,0.0435,0.0022
0.235,0.214,0.1859,0.0452,0.0022
0.24,0.2157,0.1888,0.0469,0.0022
0.245,0.2174,0.1909,0.0485,0.0022
0.25,0.2189,0.1923,0.0501,0.0022
0.255,0.2203,0.1935,0.0515,0.0022
0.26,0.2217,0.1946,0.0529,0.0022
0.265,0.223,0.1961,0.0542,0.0022
0.27,0.2243,0.1978,0.0555,0.0022
0.275,0.2256,0.2001,0.0568,0.0022
0.28,0.227,0.2025,0.0582,0.0022
0.285,0.2285,0.2051,0.0597,0.0022
0.29,0.23,0.2077,0.0612,0.0022
0.295,0.2316,0.2104,0.0628,0.0022
0.3,0.2332,0.214,0.0644,0.0022
0.305,0.2347,0.2175,0.0659,0.0022
0.31,0.2362,0.2208,0.0674,0.0022
0.315,0.2377,0.2239,0.0689,0.0022
0.32,0.2393,0.2264,0.0705,0.0022
0.325,0.2409,0.2285,0.0721,0.0022
0.33,0.2426,0.2307,0.0738,0.0022
0.335,0.2444,0.2332,0.0756,0.0022
0.34,0.2462,0.2358,0.0774,0.0022
0.345,0.248,0.2384,0.0792,0.0022
0.35,0.2498,0.2406,0.081,0.0022
0.355,0.2516,0.2424,0.0828,0.0022
0.36,0.2533,0.2436,0.0845,0.0022
0.365,0.2548,0.2452,0.086,0.0022
0.37,0.2563,0.2477,0.0875,0.0022
0.375,0.2578,0.2506,0.089,0.0022
0.38,0.2593,0.2541,0.0905,0.0022
0.385,0.2609,0.2573,0.0921,0.0022
0.39,0.2625,0.2598,0.0937,0.0022
0.395,0.2641,0.2623,0.0953,0.0022
0.4,0.2658,0.2649,0.097,0.0022
0.405,0.2675,0.2681,0.0987,0.0022
0.41,0.2692,0.2714,0.1004,0.0022
0.415,0.2707,0.2747,0.1019,0.0022
0.42,0.2722,0.2773,0.1034,0.0022
0.425,0.2735,0.2793,0.1047,0.0022
0.43,0.2748,0.2804,0.1059,0.0022
0.435,0.276,0.2808,0.1072,0.0022
0.44,0.2772,0.2818,0.1084,0.0022
0.445,0.2785,0.2833,0.1097,0.0022
0.45,0.2799,0.2855,0.1111,0.0022
0.455,0.2813,0.2875,0.1125,0.0022
0.46,0.2828,0.2896,0.1139,0.0022
0.465,0.2842,0.2911,0.1154,0.0022
0.47,0.2856,0.2926,0.1168,0.0022
0.475,0.287,0.2943,0.1182,0.0022
0.48,0.2885,0.296,0.1196,0.0022
0.485,0.2899,0.2973,0.121,0.0022
0.49,0.2913,0.3,0.1225,0.0022
0.495,0.2928,0.3031,0.1239,0.0022
0.5,0.2943,0.3053,0.1255,0.0022
0.505,0.2959,0.307,0.1271,0.0022
0.51,0.2975,0.3089,0.1287,0.0022
0.515,0.2991,0.3109,0.1303,0.0022
0.52,0.3008,0.3137,0.132,0.0022
0.525,0.3024,0.3168,0.1336,0.0022
0.53,0.304,0.3199,0.1352,0.0022
0.535,0.3055,0.3222,0.1367,0.0022
0.54,0.307,0.3238,0.1382,0.0022
0.545,0.3084,0.3253,0.1396,0.0022
0.55,0.3099,0.3263,0.1411,0.0022
0.555,0.3113,0.3277,0.1425,0.0022
0.56,0.3128,0.33,0.144,0.0022
0.565,0.3144,0.3324,0.1456,0.0022
0.57,0.316,0.3353,0.1472,0.0022
0.575,0.3177,0.3376,0.1489,0.0022
0.58,0.3194,0.3392,0.1506,0.0022
0.585,0.321,0.3411,0.1522,0.0022
0.59,0.3225,0.343,0.1537,0.0022
0.595,0.3239,0.3447,0.1551,0.0022
0.6,0.3252,0.3469,0.1564,0.0022
0.605,0.3265,0.3502,0.1576,0.0022
0.61,0.3276,0.3534,0.1588,0.0022
0.615,0.3289,0.3566,0.16,0.0022
0.62,0.3301,0.3598,0.1613,0.0022
0.625,0.3314,0.3627,0.1626,0.0022
0.63,0.3328,0.3653,0.164,0.0022
0.635,0.3343,0.3681,0.1655,0.0022
0.64,0.3358,0.3709,0.167,0.0022
0.645,0.3373,0.3742,0.1685,0.0022
0.65,0.3387,0.3776,0.1699,0.0022
0.655,0.3402,0.3801,0.1714,0.0022
0.66,0.3417,0.3823,0.1729,0.0022
0.665,0.3432,0.3843,0.1744,0.0022
0.67,0.3449,0.3865,0.1761,0.0022
0.675,0.3466,0.3894,0.1778,0.0022
0.68,0.3483,0.3921,0.1795,0.0022
0.685,0.3501,0.3949,0.1813,0.0022
0.69,0.352,0.3973,0.1832,0.0022
0.695,0.3538,0.3995,0.185,0.0022
0.7,0.3556,0.4017,0.1868,0.0252
0.705,0.3573,0.4045,0.1885,0.2379
0.71,0.3589,0.4074,0.1901,0.6141
0.715,0.3604,0.4109,0.1916,1.0624
0.72,0.3619,0.415,0.1931,1.5216
0.725,0.3635,0.4185,0.1947,1.9515
0.73,0.365,0.4216,0.1962,2.3286
0.735,0.3666,0.4244,0.1978,2.642
0.74,0.3683,0.4272,0.1995,2.8897
0.745,0.37,0.4295,0.2011,3.0758
0.75,0.3716,0.432,0.2028,3.2075
0.755,0.3732,0.4349,0.2044,3.2941
0.76,0.3747,0.4381,0.2059,3.3448
0.765,0.3761,0.4403,0.2073,3.3686
0.77,0.3774,0.4412,0.2086,3.3731
0.775,0.3786,0.4423,0.2098,3.365
0.78,0.3797,0.4445,0.2109,3.3495
0.785,0.3809,0.447,0.2121,3.3303
0.79,0.3821,0.4496,0.2133,3.3104
0.795,0.3835,0.4525,0.2146,3.2916
0.8,0.3848,0.4553,0.216,3.2749
0.805,0.3863,0.4578,0.2174,3.261
0.81,0.3878,0.4596,0.2189,3.2499
0.815,0.3893,0.4612,0.2205,3.2415
0.82,0.3907,0.463,0.2219,3.2355
0.825,0.3922,0.4652,0.2234,3.2315
0.83,0.3937,0.4676,0.2249,3.2291
0.835,0.3952,0.4696,0.2264,3.228
0.84,0.3968,0.472,0.228,3.2277
0.845,0.3983,0.4749,0.2295,3.228
0.85,0.4,0.4775,0.2312,3.2286
0.855,0.4016,0.4802,0.2328,3.2294
0.86,0.4033,0.4827,0.2344,3.2303
0.865,0.4049,0.4857,0.2361,3.2311
0.87,0.4066,0.4887,0.2378,3.2318
0.875,0.4083,0.4919,0.2395,3.2324
0.88,0.4098,0.4944,0.241,3.2329
0.885,0.4114,0.4963,0.2425,3.2333
0.89,0.4128,0.4986,0.244,3.2335
0.895,0.4143,0.5007,0.2455,3.2337
0.9,0.4158,0.5032,0.247,3.2338
0.905,0.4173,0.506,0.2485,3.2339
0.91,0.419,0.5096,0.2501,3.2339
0.915,0.4207,0.5141,0.2519,3.2339
0.92,0.4224,0.5179,0.2536,3.2339
0.925,0.4241,0.5214,0.2553,3.2338
0.93,0.4258,0.5245,0.257,3.2338
0.935,0.4274,0.5268,0.2586,3.2338
0.94,0.4288,0.5282,0.26,3.2338
0.945,0.4301,0.5294,0.2613,3.2338
0.95,0.4314,0.5311,0.2626,3.2338
0.955,0.4327,0.5332,0.2639,3.2338
0.96,0.434,0.5362,0.2652,3.2338
0.965,0.4354,0.5401,0.2665,3.2338
0.97,0.4368,0.5436,0.268,3.2337
0.975,0.4383,0.5467,0.2695,3.2337
0.98,0.4398,0.5498,0.271,3.2337
0.985,0.4413,0.5525,0.2725,3.2337
0.99,0.4428,0.5548,0.274,3.2337
0.995,0.4442,0.5567,0.2754,3.2337
1.0,0.4457,0.5586,0.2768,3.2337
1.005,0.4471,0.561,0.2783,3.2338
1.01,0.4486,0.5642,0.2798,3.2338
1.015,0.4502,0.5675,0.2814,3.2338
1.02,0.4518,0.5706,0.283,3.2338
1.025,0.4535,0.5726,0.2847,3.2338
1.03,0.4552,0.574,0.2864,3.2338
1.035,0.4569,0.5757,0.288,3.2338
1.04,0.4585,0.5779,0.2897,3.2338
1.045,0.4601,0.5807,0.2913,3.2338
1.05,0.4617,0.5842,0.2929,3.2338
1.055,0.4631,0.5871,0.2943,3.2338
1.06,0.4646,0.5895,0.2958,3.2338
1.065,0.466,0.5913,0.2972,3.2338
1.07,0.4675,0.5937,0.2987,3.2338
1.075,0.469,0.5971,0.3002,3.2338
1.08,0.4705,0.6009,0.3017,3.2337
1.085,0.4721,0.6043,0.3033,3.2337
1.09,0.4738,0.6074,0.305,3.2337
1.095,0.4755,0.6109,0.3067,3.2337
1.1,0.4772,0.6137,0.3084,3.2337
1.105,0.4787,0.6159,0.3099,3.2337
1.11,0.4801,0.6178,0.3113,3.2337
1.115,0.4814,0.62,0.3126,3.2337
1.12,0.4827,0.6229,0.3139,3.2337
1.125,0.4839,0.6261,0.3151,3.2337
1.13,0.4851,0.6288,0.3163,3.2337
1.135,0.4863,0.6313,0.3175,3.2337
1.14,0.4876,0.6331,0.3188,3.2338
1.145,0.4889,0.6352,0.3201,3.2338
1.15,0.4903,0.6377,0.3215,3.2338
1.155,0.4918,0.6402,0.323,3.2338
1.16,0.4932,0.6421,0.3244,3.2338
1.165,0.4946,0.6436,0.3258,3.2338
1.17,0.496,0.6452,0.3271,3.2339
1.175,0.4973,0.6462,0.3285,3.2339
1.18,0.4987,0.6477,0.3299,3.2339
1.185,0.5002,0.65,0.3314,3.2339
1.19,0.5017,0.6534,0.3329,3.2338
1.195,0.5033,0.6566,0.3345,3.2338
1.2,0.5049,0.6597,0.3361,3.2338
1.205,0.5065,0.6631,0.3377,3.2338
1.21,0.5082,0.6671,0.3394,3.2338
1.215,0.5099,0.6699,0.341,3.2338
1.22,0.5115,0.6716,0.3427,3.2337
1.225,0.513,0.6727,0.3442,3.2337
1.23,0.5145,0.6735,0.3457,3.2337
1.235,0.516,0.6749,0.3471,3.2337
1.24,0.5174,0.6774,0.3486,3.2337
1.245,0.5188,0.6806,0.35,3.2337
1.25,0.5203,0.684,0.3514,3.2337
1.255,0.5218,0.6867,0.353,3.2337
1.26,0.5234,0.6888,0.3546,3.2337
1.265,0.5251,0.6909,0.3563,3.2337
1.27,0.5268,0.6933,0.358,3.2337
1.275,0.5286,0.6968,0.3597,3.2337
1.28,0.5302,0.7013,0.3614,3.2337
1.285,0.5317,0.7066,0.3629,3.2337
1.29,0.5331,0.7126,0.3643,3.2337
1.295,0.5343,0.7189,0.3655,3.2337
1.3,0.5356,0.7253,0.3668,3.2337
1.305,0.5369,0.7315,0.3681,3.2337
1.31,0.5382,0.7372,0.3694,3.2337
1.315,0.5396,0.7429,0.3708,3.2337
1.32,0.541,0.7489,0.3722,3.2337
1.325,0.5424,0.7546,0.3736,3.2337
1.33,0.5439,0.7599,0.3751,3.2337
1.335,0.5454,0.7648,0.3766,3.2337
1.34,0.5469,0.7693,0.3781,3.2338
1.345,0.5484,0.7739,0.3796,3.2338
1.35,0.5499,0.7793,0.3811,3.2338
1.355,0.5514,0.7851,0.3826,3.2338
1.36,0.5531,0.7906,0.3842,3.2338
1.365,0.5547,0.7961,0.3859,3.2338
1.37,0.5564,0.8013,0.3876,3.2338
1.375,0.5581,0.8063,0.3893,3.2338
1.38,0.5599,0.8116,0.3911,3.2338
1.385,0.5616,0.8176,0.3928,3.2338
1.39,0.5632,0.8232,0.3944,3.2339
1.395,0.5648,0.8295,0.396,3.2339
1.4,0.5662,0.8363,0.3974,3.2339
1.405,0.5676,0.8428,0.3988,3.2339
1.41,0.569,0.8486,0.4002,3.2339
1.415,0.5703,0.8544,0.4015,3.2338
1.42,0.5717,0.8607,0.4029,3.2338
1.425,0.5731,0.867,0.4043,3.2338
1.43,0.5746,0.8729,0.4058,3.2338
1.435,0.5762,0.8782,0.4074,3.2338
1.44,0.5779,0.8832,0.4091,3.2337
1.445,0.5795,0.8886,0.4107,3.2337
1.45,0.5811,0.8942,0.4123,3.2337
1.455,0.5827,0.9002,0.4139,3.2337
1.46,0.5841,0.906,0.4153,3.2337
1.465,0.5853,0.9107,0.4165,3.2338
1.47,0.5866,0.9147,0.4177,3.2338
1.475,0.5877,0.9186,0.4189,3.2338
1.48,0.5889,0.922,0.4201,3.2338
1.485,0.5902,0.9259,0.4214,3.2338
1.49,0.5915,0.9306,0.4227,3.2338
1.495,0.5928,0.9358,0.424,3.2338
1.5,0.5943,0.9409,0.4254,3.2338
1.505,0.5957,0.9459,0.4269,3.2338
1.51,0.5972,0.9509,0.4283,3.2338
1.515,0.5986,0.956,0.4298,3.2338
1.52,0.6,0.9614,0.4312,3.2338
1.525,0.6014,0.9673,0.4326,3.2338
1.53,0.6029,0.9737,0.4341,3.2338
1.535,0.6043,0.9804,0.4355,3.2338
1.54,0.6059,0.9871,0.4371,3.2338
1.545,0.6075,0.9936,0.4387,3.2339
1.55,0.6091,1.0001,0.4403,3.2339
1.555,0.6107,1.007,0.4419,3.2339
1.56,0.6123,1.014,0.4435,3.2339
1.565,0.6139,1.0213,0.4451,3.2339
1.57,0.6155,1.0287,0.4467,3.2339
1.575,0.6171,1.0356,0.4483,3.2339
1.58,0.6186,1.0419,0.4497,3.2338
1.585,0.62,1.0482,0.4512,3.2338
1.59,0.6214,1.0538,0.4526,3.2338
1.595,0.6228,1.0595,0.454,3.2337
1.6,0.6243,1.066,0.4555,3.2337
1.605,0.6259,1.0733,0.457,3.2337
1.61,0.6274,1.0803,0.4586,3.2337
1.615,0.6291,1.087,0.4603,3.2337
1.62,0.6308,1.094,0.462,3.2337
1.625,0.6325,1.1009,0.4637,3.2337
1.63,0.6341,1.1076,0.4653,3.2337
1.635,0.6356,1.1148,0.4668,3.2336
1.64,0.637,1.1222,0.4682,3.2336
1.645,0.6383,1.1295,0.4695,3.2336
1.65,0.6395,1.1364,0.4707,3.2336
1.655,0.6407,1.1428,0.4719,3.2336
1.66,0.642,1.1486,0.4732,3.2336
1.665,0.6433,1.1538,0.4745,3.2336
1.67,0.6448,1.1591,0.476,3.2336
1.675,0.6463,1.1645,0.4774,3.2336
1.68,0.6477,1.1694,0.4789,3.2337
1.685,0.6492,1.1747,0.4804,3.2337
1.69,0.6507,1.1812,0.4819,3.2337
1.695,0.6522,1.1878,0.4834,3.2337
1.7,0.6537,1.1938,0.4849,3.2337
1.705,0.6552,1.2001,0.4864,3.2337
1.71,0.6568,1.2067,0.488,3.2338
1.715,0.6585,1.2138,0.4896,3.2338
1.72,0.6601,1.2215,0.4913,3.2338
1.725,0.6618,1.2297,0.493,3.2338
1.73,0.6636,1.2381,0.4948,3.2338
1.735,0.6653,1.2463,0.4965,3.2338
1.74,0.6671,1.2552,0.4983,3.2338
1.745,0.6688,1.264,0.4999,3.2338
1.75,0.6703,1.2722,0.5015,3.2338
1.755,0.6719,1.2801,0.5031,3.2338
1.76,0.6734,1.2879,0.5046,3.2337
1.765,0.6749,1.2958,0.5061,3.2337
1.77,0.6764,1.3034,0.5076,3.2337
1.775,0.678,1.3111,0.5091,3.2337
1.78,0.6796,1.3195,0.5108,3.2336
1.785,0.6812,1.3285,0.5124,3.2336
1.79,0.6829,1.3381,0.5141,3.2336
1.795,0.6845,1.3477,0.5156,3.2336
1.8,0.6859,1.3579,0.5171,3.2336
1.805,0.6873,1.3682,0.5185,3.2336
1.81,0.6885,1.3782,0.5197,3.2336
1.815,0.6897,1.3888,0.5209,3.2336
1.82,0.6908,1.3993,0.522,3.2336
1.825,0.692,1.4095,0.5231,3.2336
1.83,0.6931,1.4196,0.5243,3.2336
1.835,0.6944,1.4299,0.5256,3.2336
1.84,0.6957,1.4404,0.5268,3.2336
1.845,0.697,1.4511,0.5282,3.2336
1.85,0.6985,1.4619,0.5297,3.2336
1.855,0.7,1.4733,0.5312,3.2336
1.86,0.7016,1.4859,0.5328,3.2337
1.865,0.7032,1.5001,0.5344,3.2337
1.87,0.7048,1.5154,0.536,3.2337
1.875,0.7065,1.5312,0.5376,3.2337
1.88,0.7081,1.5478,0.5393,3.2337
1.885,0.7098,1.5652,0.5409,3.2337
1.89,0.7115,1.5831,0.5427,3.2338
1.895,0.7132,1.6032,0.5444,3.2338
1.9,0.715,1.6258,0.5462,3.2338
1.905,0.7168,1.6502,0.548,3.2338
1.91,0.7187,1.6751,0.5499,3.2338
1.915,0.7205,1.7012,0.5517,3.2338
1.92,0.7223,1.7282,0.5535,3.2338
1.925,0.7239,1.7562,0.5551,3.2338
1.93,0.7256,1.7846,0.5568,3.2338
1.935,0.7272,1.8132,0.5584,3.2338
1.94,0.7289,1.842,0.5601,3.2338
1.945,0.7308,1.8715,0.5619,3.2338
1.95,0.733,1.9015,0.5642,3.2338
1.955,0.7354,1.9336,0.5666,3.2338
1.96,0.7376,1.9677,0.5688,3.2338
1.965,0.7396,2.0046,0.5708,3.2337
1.97,0.7413,2.0434,0.5725,3.2337
1.975,0.7427,2.0824,0.5739,3.2337
1.98,0.744,2.1207,0.5752,3.2337
1.985,0.7452,2.1573,0.5764,3.2337
1.99,0.7465,2.1919,0.5777,3.2337
1.995,0.7477,2.2248,0.5789,3.2337
2.0,0.7491,2.2571,0.5803,3.2337
2.005,0.7505,2.2908,0.5816,3.2337
2.01,0.7519,2.329,0.583,3.2337
2.015,0.7532,2.3736,0.5844,3.2337
2.02,0.7546,2.4271,0.5858,3.2336
2.025,0.756,2.4915,0.5872,3.2336
2.03,0.7573,2.568,0.5885,3.2336
2.035,0.7587,2.6555,0.5899,3.2336
2.04,0.7602,2.7538,0.5914,3.2336
2.045,0.7617,2.8626,0.5929,3.2337
2.05,0.7632,2.9819,0.5944,3.2337
2.055,0.7649,3.1115,0.5961,3.2337
2.06,0.7665,3.2513,0.5977,3.2337
2.065,0.7681,3.4018,0.5993,3.2337
2.07,0.7698,3.562,0.601,3.2337
2.075,0.7714,3.7306,0.6026,3.2337
2.08,0.7729,3.907,0.6041,3.2337
2.085,0.7744,4.089,0.6056,3.2337
2.09,0.7758,4.2743,0.607,3.2337
2.095,0.7771,4.4599,0.6083,3.2337
2.1,0.7785,4.6451,0.6097,3.2337
2.105,0.7799,4.8286,0.6111,3.2337
2.11,0.7813,5.0107,0.6125,3.2337
2.115,0.7827,5.1925,0.6139,3.2337
2.12,0.7843,5.376,0.6155,3.2337
2.125,0.7858,5.5639,0.617,3.2337
2.13,0.7874,5.7564,0.6186,3.2337
2.135,0.7889,5.9538,0.6201,3.2337
2.14,0.7904,6.1554,0.6215,3.2336
2.145,0.7917,6.3601,0.6229,3.2336
2.15,0.7929,6.5646,0.6241,3.2336
2.155,0.7941,6.7655,0.6252,3.2336
2.16,0.7952,6.9607,0.6264,3.2336
2.165,0.7963,7.1484,0.6275,3.2336
2.17,0.7974,7.3283,0.6286,3.2335
2.175,0.7986,7.5019,0.6298,3.2336
2.18,0.7998,7.6724,0.631,3.2336
2.185,0.8012,7.8423,0.6324,3.2336
2.19,0.8026,8.0151,0.6338,3.2336
2.195,0.804,8.1928,0.6352,3.2336
2.2,0.8055,8.3783,0.6367,3.2336
2.205,0.8069,8.5718,0.6381,3.2336
2.21,0.8083,8.7721,0.6395,3.2336
2.215,0.8097,8.9784,0.6409,3.2336
2.22,0.8112,9.1898,0.6424,3.2336
2.225,0.8127,9.4071,0.6439,3.2336
2.23,0.8142,9.6298,0.6454,3.2337
2.235,0.8158,9.8576,0.647,3.2337
2.24,0.8174,10.0909,0.6486,3.2337
2.245,0.8191,10.3304,0.6503,3.2337
2.25,0.8208,10.5774,0.6519,3.2337
2.255,0.8225,10.8321,0.6537,3.2337
2.26,0.8242,11.0955,0.6554,3.2338
2.265,0.8258,11.3654,0.657,3.2338
2.27,0.8273,11.6392,0.6585,3.2338
2.275,0.8288,11.9124,0.66,3.2338
2.28,0.8302,12.1818,0.6614,3.2338
2.285,0.8316,12.4459,0.6628,3.2338
2.29,0.833,12.7044,0.6642,3.2337
2.295,0.8345,12.9582,0.6657,3.2337
2.3,0.8361,13.2092,0.6673,3.2337
2.305,0.8378,13.4603,0.6689,3.2337
2.31,0.8394,13.7143,0.6706,3.2337
2.315,0.8411,13.9738,0.6723,3.2337
2.32,0.8427,14.2397,0.6739,3.2337
2.325,0.8442,14.5089,0.6754,3.2337
2.33,0.8455,14.7775,0.6767,3.2337
2.335,0.8467,15.0408,0.6779,3.2337
2.34,0.848,15.2948,0.6792,3.2337
2.345,0.8492,15.5381,0.6804,3.2337
2.35,0.8505,15.77,0.6816,3.2337
2.355,0.8518,15.992,0.683,3.2337
2.36,0.8532,16.2086,0.6844,3.2337
2.365,0.8547,16.4245,0.6859,3.2337
2.37,0.8562,16.6438,0.6874,3.2337
2.375,0.8577,16.8692,0.6889,3.2337
2.38,0.8592,17.1009,0.6904,3.2338
2.385,0.8607,17.3388,0.6919,3.2338
2.39,0.8621,17.5825,0.6933,3.2338
2.395,0.8637,17.8316,0.6949,3.2338
2.4,0.8653,18.0862,0.6965,3.2338
2.405,0.8669,18.3475,0.6981,3.2338
2.41,0.8687,18.617,0.6998,3.2338
2.415,0.8704,18.896,0.7016,3.2338
2.42,0.8722,19.1864,0.7034,3.2338
2.425,0.8741,19.4881,0.7052,3.2338
2.43,0.8758,19.7998,0.707,3.2338
2.435,0.8775,20.1179,0.7087,3.2338
2.44,0.8791,20.4391,0.7103,3.2338
2.445,0.8806,20.7576,0.7117,3.2338
2.45,0.882,21.0689,0.7132,3.2338
2.455,0.8835,21.3702,0.7147,3.2338
2.46,0.885,21.6618,0.7162,3.2337
2.465,0.8865,21.9449,0.7177,3.2337
2.47,0.8881,22.2218,0.7193,3.2337
2.475,0.8897,22.4958,0.7209,3.2337
2.48,0.8913,22.7689,0.7225,3.2337
2.485,0.893,23.0434,0.7242,3.2336
2.49,0.8945,23.3194,0.7257,3.2336
2.495,0.8959,23.5952,0.7271,3.2336
2.5,0.8972,23.8671,0.7284,3.2336
2.505,0.8984,24.1312,0.7296,3.2336
2.51,0.8996,24.3843,0.7307,3.2336
2.515,0.9007,24.6238,0.7319,3.2336
2.52,0.9018,24.8488,0.733,3.2336
2.525,0.903,25.0615,0.7342,3.2336
2.53,0.9043,25.2663,0.7355,3.2336
2.535,0.9057,25.4686,0.7369,3.2336
2.54,0.9071,25.672,0.7383,3.2337
2.545,0.9085,25.8806,0.7397,3.2337
2.55,0.9099,26.0967,0.7411,3.2337
2.555,0.9113,26.3217,0.7425,3.2337
2.56,0.9127,26.5547,0.7439,3.2338
2.565,0.9141,26.7943,0.7453,3.2338
2.57,0.9156,27.0397,0.7468,3.2338
2.575,0.9171,27.2911,0.7483,3.2338
2.58,0.9186,27.5482,0.7498,3.2338
2.585,0.9202,27.811,0.7514,3.2338
2.59,0.9218,28.0805,0.753,3.2338
2.595,0.9235,28.3577,0.7547,3.2338
2.6,0.9252,28.6438,0.7564,3.2339
2.605,0.9269,28.9375,0.7581,3.2339
2.61,0.9286,29.2385,0.7598,3.2339
2.615,0.9302,29.5449,0.7614,3.2339
2.62,0.9317,29.8526,0.7629,3.2338
2.625,0.9332,30.1581,0.7644,3.2338
2.63,0.9347,30.4582,0.7659,3.2338
2.635,0.9362,30.7507,0.7674,3.2337
2.64,0.9377,31.0362,0.7688,3.2337
2.645,0.9392,31.3167,0.7704,3.2337
2.65,0.9408,31.5943,0.772,3.2336
2.655,0.9425,31.872,0.7736,3.2336
2.66,0.9441,32.1524,0.7753,3.2336
2.665,0.9457,32.4368,0.7769,3.2335
2.67,0.9472,32.7245,0.7784,3.2335
2.675,0.9486,33.0121,0.7798,3.2335
2.68,0.9499,33.2952,0.7811,3.2335
2.685,0.9511,33.5694,0.7823,3.2335
2.69,0.9523,33.8323,0.7835,3.2336
2.695,0.9535,34.0831,0.7847,3.2336
2.7,0.9548,34.3225,0.786,3.2336
2.705,0.956,34.552,0.7872,3.2336
2.71,0.9574,34.7758,0.7886,3.2336
2.715,0.9589,34.9994,0.7901,3.2337
2.72,0.9604,35.2271,0.7916,3.2337
2.725,0.9619,35.4633,0.7931,3.2337
2.73,0.9635,35.7108,0.7947,3.2337
2.735,0.965,35.9694,0.7962,3.2337
2.74,0.9665,36.2389,0.7977,3.2338
2.745,0.9681,36.5177,0.7993,3.2338
2.75,0.9697,36.8058,0.8009,3.2338
2.755,0.9714,37.104,0.8026,3.2338
2.76,0.9731,37.4115,0.8043,3.2338
2.765,0.9749,37.7284,0.8061,3.2338
2.77,0.9766,38.0551,0.8078,3.2338
2.775,0.9784,38.3907,0.8096,3.2338
2.78,0.9801,38.7338,0.8113,3.2338
2.785,0.9817,39.0814,0.8129,3.2337
2.79,0.9832,39.4291,0.8144,3.2337
2.795,0.9847,39.773,0.8159,3.2337
2.8,0.9861,40.1087,0.8173,3.2337
2.805,0.9876,40.434,0.8188,3.2337
2.81,0.9891,40.7492,0.8202,3.2337
2.815,0.9906,41.0577,0.8218,3.2336
2.82,0.9922,41.3625,0.8234,3.2336
2.825,0.9938,41.6667,0.825,3.2336
2.83,0.9955,41.9737,0.8267,3.2336
2.835,0.9971,42.285,0.8283,3.2335
2.84,0.9987,42.6016,0.8299,3.2335
2.845,1.0001,42.9211,0.8313,3.2335
2.85,1.0015,43.2387,0.8327,3.2335
2.855,1.0027,43.5483,0.8339,3.2335
2.86,1.0039,43.8456,0.8351,3.2335
2.865,1.0051,44.1279,0.8362,3.2336
2.87,1.0063,44.3955,0.8375,3.2336
2.875,1.0075,44.6506,0.8387,3.2336
2.88,1.0089,44.8962,0.8401,3.2336
2.885,1.0103,45.1375,0.8415,3.2336
2.89,1.0118,45.3806,0.843,3.2336
2.895,1.0133,45.6308,0.8445,3.2337
2.9,1.0148,45.8905,0.846,3.2337
2.905,1.0163,46.1609,0.8475,3.2337
2.91,1.0178,46.441,0.8489,3.2337
2.915,1.0192,46.7289,0.8504,3.2337
2.92,1.0208,47.0233,0.8519,3.2337
2.925,1.0223,47.3236,0.8535,3.2337
2.93,1.024,47.6303,0.8552,3.2337
2.935,1.0256,47.944,0.8568,3.2337
2.94,1.0273,48.2649,0.8584,3.2337
2.945,1.0289,48.5935,0.8601,3.2337
2.95,1.0306,48.9296,0.8618,3.2336
2.955,1.0323,49.2721,0.8635,3.2336
2.96,1.0339,49.6203,0.8651,3.2336
2.965,1.0355,49.9711,0.8667,3.2336
2.966,1.0358,50.0412,0.867,3.2336
2.967,1.0361,50.1113,0.8673,3.2336
2.972,1.0375,50.4595,0.8687,3.2336
2.977,1.0387,50.8003,0.8699,3.2336
